time (in seconds),queue density
0.0666092,0.0322042
0.133218,0.043498
0.199828,0.0611324
0.266437,0.0744913
0.333046,0.0811728
0.399655,0.0911029
0.466264,0.0999161
0.532873,0.104564
0.599483,0.110081
0.666092,0.114247
0.732701,0.116657
0.79931,0.119674
0.865919,0.123311
0.932529,0.124028
0.999138,0.127081
1.06575,0.129303
1.13236,0.130204
1.19897,0.132755
1.26557,0.135451
1.33218,0.135961
1.39879,0.137277
1.4654,0.138923
1.53201,0.13939
1.59862,0.142289
1.66523,0.144868
1.73184,0.146196
1.79845,0.148936
1.86506,0.152658
1.93167,0.153007
1.99828,0.153905
2.06488,0.154594
2.13149,0.154943
2.1981,0.155143
2.26471,0.155406
2.33132,0.156127
2.39793,0.155899
2.46454,0.156577
2.53115,0.15666
2.59776,0.156993
2.66437,0.157236
2.73098,0.157569
2.79759,0.157886
2.86419,0.157494
2.9308,0.158975
2.99741,0.158329
3.06402,0.157968
3.13063,0.158619
3.19724,0.159485
3.26385,0.159936
3.33046,0.16059
3.39707,0.161233
3.46368,0.163419
3.53029,0.164517
3.5969,0.166629
3.6635,0.168757
3.73011,0.169654
3.79672,0.170959
3.86333,0.172135
3.92994,0.172499
3.99655,0.173408
4.06316,0.173428
4.12977,0.172867
4.19638,0.170924
4.26299,0.169572
4.3296,0.169294
4.39621,0.168808
4.46282,0.16755
4.52942,0.167511
4.59603,0.168588
4.66264,0.169924
4.72925,0.170771
4.79586,0.172558
4.86247,0.173616
4.92908,0.174192
4.99569,0.175501
5.0623,0.176602
5.12891,0.177519
5.19552,0.180442
5.26213,0.183914
5.32873,0.185662
5.39534,0.187312
5.46195,0.189632
5.52856,0.191591
5.59517,0.196423
5.66178,0.202426
5.72839,0.205714
5.795,0.212192
5.86161,0.21854
5.92822,0.22191
5.99483,0.229133
6.06144,0.235916
6.12804,0.238126
6.19465,0.241328
6.26126,0.244718
6.32787,0.246367
6.39448,0.249044
6.46109,0.251662
6.5277,0.252677
6.59431,0.255349
6.66092,0.255996
6.72753,0.255212
6.79414,0.254072
6.86075,0.252159
6.92735,0.251254
6.99396,0.248856
7.06057,0.247182
7.12718,0.246599
7.19379,0.246105
7.2604,0.247613
7.32701,0.248777
7.39362,0.251489
7.46023,0.253256
7.52684,0.255157
7.59345,0.25888
7.66006,0.262078
7.72666,0.263575
7.79327,0.266118
7.85988,0.266823
7.92649,0.265949
7.9931,0.266278
8.05971,0.266188
8.12632,0.266588
8.19293,0.266749
8.25954,0.267415
8.32615,0.267517
8.39276,0.268234
8.45937,0.270914
8.52598,0.272599
8.59258,0.275346
8.65919,0.281667
8.7258,0.28309
8.79241,0.28597
8.85902,0.28706
8.92563,0.287839
8.99224,0.289842
9.05885,0.291809
9.12546,0.292914
9.19207,0.293408
9.25868,0.294603
9.32529,0.294862
9.39189,0.293584
9.4585,0.293486
9.52511,0.292381
9.59172,0.290124
9.65833,0.289732
9.72494,0.289438
9.79155,0.288513
9.85816,0.287326
9.92477,0.286773
9.99138,0.285374
10.058,0.284042
10.1246,0.284265
10.1912,0.283991
10.2578,0.282655
10.3244,0.281773
10.391,0.27988
10.4576,0.278536
10.5243,0.277513
10.5909,0.276013
10.6575,0.275546
10.7241,0.275331
10.7907,0.273822
10.8573,0.272317
10.9239,0.272125
10.9905,0.2716
11.0571,0.271498
11.1237,0.27162
11.1903,0.271737
11.257,0.270989
11.3236,0.270781
11.3902,0.269304
11.4568,0.268187
11.5234,0.268022
11.59,0.268434
11.6566,0.267544
11.7232,0.267066
11.7898,0.266196
11.8564,0.266047
11.923,0.265996
11.9897,0.265902
12.0563,0.265048
12.1229,0.264652
12.1895,0.264209
12.2561,0.263457
12.3227,0.263143
12.3893,0.261791
12.4559,0.261086
12.5225,0.261513
12.5891,0.261204
12.6557,0.261333
12.7224,0.260906
12.789,0.26002
12.8556,0.25964
12.9222,0.25685
12.9888,0.256595
13.0554,0.257015
13.122,0.256932
13.1886,0.256611
13.2552,0.256623
13.3218,0.256776
13.3884,0.256427
13.4551,0.25627
13.5217,0.256368
13.5883,0.257026
13.6549,0.256391
13.7215,0.255831
13.7881,0.255549
13.8547,0.255584
13.9213,0.255592
13.9879,0.255949
14.0545,0.256047
14.1211,0.25596
14.1878,0.255282
14.2544,0.255212
14.321,0.255055
14.3876,0.2548
14.4542,0.254671
14.5208,0.254981
14.5874,0.255522
14.654,0.255561
14.7206,0.255439
14.7872,0.25542
14.8538,0.255416
14.9205,0.255094
14.9871,0.255184
15.0537,0.255016
15.1203,0.255036
15.1869,0.254675
15.2535,0.254436
15.3201,0.254738
15.3867,0.254554
15.4533,0.255059
15.5199,0.254675
15.5865,0.254726
15.6532,0.255043
15.7198,0.254757
15.7864,0.254777
15.853,0.25346
15.9196,0.25261
15.9862,0.253727
16.0528,0.255502
16.1194,0.255514
16.186,0.256423
16.2526,0.255122
16.3192,0.254973
16.3859,0.255294
16.4525,0.254934
16.5191,0.254589
16.5857,0.254695
16.6523,0.254557
16.7189,0.254597
16.7855,0.254091
16.8521,0.254115
16.9187,0.25388
16.9853,0.254162
17.052,0.254244
17.1186,0.254099
17.1852,0.254765
17.2518,0.254734
17.3184,0.254409
17.385,0.254236
17.4516,0.254706
17.5182,0.254996
17.5848,0.255024
17.6514,0.255224
17.718,0.255177
17.7847,0.254824
17.8513,0.254867
17.9179,0.254679
17.9845,0.254561
18.0511,0.254299
18.1177,0.253621
18.1843,0.25359
18.2509,0.254052
18.3175,0.25406
18.3841,0.25504
18.4507,0.256113
18.5174,0.256493
18.584,0.257881
18.6506,0.259891
18.7172,0.26091
18.7838,0.263234
18.8504,0.265934
18.917,0.266204
18.9836,0.268398
19.0502,0.269797
19.1168,0.269895
19.1834,0.269261
19.2501,0.267485
19.3167,0.266423
19.3833,0.265177
19.4499,0.263496
19.5165,0.262928
19.5831,0.261345
19.6497,0.260506
19.7163,0.259848
19.7829,0.258096
19.8495,0.256395
19.9161,0.255929
19.9828,0.254808
20.0494,0.253872
20.116,0.25348
20.1826,0.253162
20.2492,0.252696
20.3158,0.253084
20.3824,0.253264
20.449,0.253915
20.5156,0.25388
20.5822,0.254248
20.6488,0.255576
20.7155,0.255008
20.7821,0.254358
20.8487,0.254753
20.9153,0.254256
20.9819,0.254761
21.0485,0.254362
21.1151,0.253962
21.1817,0.253401
21.2483,0.255181
21.3149,0.255079
21.3815,0.254793
21.4482,0.254448
21.5148,0.254377
21.5814,0.254828
21.648,0.255294
21.7146,0.255384
21.7812,0.255549
21.8478,0.255702
21.9144,0.255772
21.981,0.255878
22.0476,0.255349
22.1142,0.255302
22.1809,0.25587
22.2475,0.256011
22.3141,0.256129
22.3807,0.256105
22.4473,0.25627
22.5139,0.256552
22.5805,0.256873
22.6471,0.257371
22.7137,0.258171
22.7803,0.258994
22.8469,0.260557
22.9136,0.259671
22.9802,0.26129
23.0468,0.262638
23.1134,0.263445
23.18,0.263723
23.2466,0.263817
23.3132,0.263465
23.3798,0.263402
23.4464,0.263026
23.513,0.262916
23.5796,0.262912
23.6463,0.26314
23.7129,0.263304
23.7795,0.263375
23.8461,0.263763
23.9127,0.263817
23.9793,0.264127
24.0459,0.264256
24.1125,0.264315
24.1791,0.264523
24.2457,0.264284
24.3124,0.264139
24.379,0.264229
24.4456,0.263598
24.5122,0.263629
24.5788,0.263488
24.6454,0.263222
24.712,0.263559
24.7786,0.263163
24.8452,0.2629
24.9118,0.262842
24.9784,0.262136
25.0451,0.262399
25.1117,0.262081
25.1783,0.26158
25.2449,0.261733
25.3115,0.261952
25.3781,0.262328
25.4447,0.263285
25.5113,0.264096
25.5779,0.266886
25.6445,0.268669
25.7111,0.269288
25.7778,0.27073
25.8444,0.272654
25.911,0.273889
25.9776,0.275503
26.0442,0.277114
26.1108,0.2768
26.1774,0.277314
26.244,0.278035
26.3106,0.278795
26.3772,0.279304
26.4438,0.279645
26.5105,0.279681
26.5771,0.280163
26.6437,0.280374
26.7103,0.280194
26.7769,0.281142
26.8435,0.282957
26.9101,0.284183
26.9767,0.287295
27.0433,0.290575
27.1099,0.29235
27.1765,0.296566
27.2432,0.300634
27.3098,0.303264
27.3764,0.307425
27.443,0.313198
27.5096,0.315976
27.5762,0.32176
27.6428,0.326694
27.7094,0.329115
27.776,0.333861
27.8426,0.338211
27.9092,0.342878
27.9759,0.346726
28.0425,0.351346
28.1091,0.354109
28.1757,0.359388
28.2423,0.365595
28.3089,0.368193
28.3755,0.374103
28.4421,0.379201
28.5087,0.381662
28.5753,0.387019
28.6419,0.391902
28.7086,0.394108
28.7752,0.39997
28.8418,0.404731
28.9084,0.407698
28.975,0.410911
29.0416,0.413941
29.1082,0.414799
29.1748,0.417765
29.2414,0.421033
29.308,0.420657
29.3746,0.422961
29.4413,0.423949
29.5079,0.424212
29.5745,0.432457
29.6411,0.43228
29.7077,0.433907
29.7743,0.435345
29.8409,0.437202
29.9075,0.4373
29.9741,0.43826
30.0407,0.44
30.1073,0.440345
30.174,0.442081
30.2406,0.44366
30.3072,0.44397
30.3738,0.44495
30.4404,0.447571
30.507,0.448128
30.5736,0.449613
30.6402,0.452485
30.7068,0.452622
30.7734,0.454558
30.8401,0.455413
30.9067,0.456192
30.9733,0.457176
31.0399,0.458548
31.1065,0.458857
31.1731,0.459539
31.2397,0.4651
31.3063,0.464818
31.3729,0.4653
31.4395,0.465209
31.5061,0.465452
31.5728,0.466173
31.6394,0.465531
31.706,0.465166
31.7726,0.46584
31.8392,0.466244
31.9058,0.466318
31.9724,0.466569
32.039,0.466702
32.1056,0.466608
32.1722,0.467177
32.2388,0.467443
32.3055,0.467353
32.3721,0.467169
32.4387,0.467122
32.5053,0.467071
32.5719,0.466891
32.6385,0.467537
32.7051,0.467431
32.7717,0.467467
32.8383,0.467059
32.9049,0.46778
32.9715,0.468485
33.0382,0.468717
33.1048,0.468188
33.1714,0.468866
33.238,0.471538
33.3046,0.472925
33.3712,0.478114
33.4378,0.484454
33.5044,0.487429
33.571,0.492503
33.6376,0.496187
33.7042,0.498201
33.7709,0.501861
33.8375,0.505302
33.9041,0.507073
33.9707,0.509773
34.0373,0.511701
34.1039,0.51263
34.1705,0.514202
34.2371,0.516075
34.3037,0.516878
34.3703,0.518649
34.4369,0.522995
34.5036,0.524061
34.5702,0.534528
34.6368,0.537216
34.7034,0.537851
34.77,0.541264
34.8366,0.545912
34.9032,0.547644
34.9698,0.550669
35.0364,0.550473
35.103,0.550979
35.1696,0.551261
35.2363,0.552993
35.3029,0.553546
35.3695,0.554447
35.4361,0.555517
35.5027,0.556692
35.5693,0.559679
35.6359,0.56047
35.7025,0.56132
35.7691,0.56335
35.8357,0.565537
35.9023,0.566289
35.969,0.566583
36.0356,0.569064
36.1022,0.569742
36.1688,0.571321
36.2354,0.573845
36.302,0.574335
36.3686,0.574472
36.4352,0.57473
36.5018,0.574174
36.5684,0.572865
36.635,0.57265
36.7017,0.572563
36.7683,0.57234
36.8349,0.571917
36.9015,0.572363
36.9681,0.572089
37.0347,0.57118
37.1013,0.571215
37.1679,0.57116
37.2345,0.571948
37.3011,0.570827
37.3678,0.570745
37.4344,0.570095
37.501,0.569942
37.5676,0.569244
37.6342,0.568441
37.7008,0.568206
37.7674,0.567681
37.834,0.56656
37.9006,0.562641
37.9672,0.56375
38.0338,0.564792
38.1005,0.56522
38.1671,0.567171
38.2337,0.569299
38.3003,0.570929
38.3669,0.572508
38.4335,0.575205
38.5001,0.576713
38.5667,0.580044
38.6333,0.583606
38.6999,0.58537
38.7665,0.589183
38.8332,0.592698
38.8998,0.594775
38.9664,0.597827
39.033,0.600622
39.0996,0.602722
39.1662,0.606335
39.2328,0.609415
39.2994,0.610493
39.366,0.613369
39.4326,0.618836
39.4992,0.619459
39.5659,0.63096
39.6325,0.635957
39.6991,0.639441
39.7657,0.643242
39.8323,0.64682
39.8989,0.648438
39.9655,0.651741
40.0321,0.654661
40.0987,0.655707
40.1653,0.658352
40.2319,0.661679
40.2986,0.663286
40.3652,0.669678
40.4318,0.67407
40.4984,0.676336
40.565,0.679686
40.6316,0.683025
40.6982,0.683899
40.7648,0.686544
40.8314,0.688962
40.898,0.68971
40.9646,0.690012
41.0313,0.691007
41.0979,0.691744
41.1645,0.691779
41.2311,0.709692
41.2977,0.709841
41.3643,0.709527
41.4309,0.709374
41.4975,0.709214
41.5641,0.709657
41.6307,0.709519
41.6973,0.70921
41.764,0.709378
41.8306,0.709931
41.8972,0.712059
41.9638,0.71421
42.0304,0.716785
42.097,0.716949
42.1636,0.718011
42.2302,0.719007
42.2968,0.722055
42.3634,0.722361
42.43,0.723306
42.4967,0.72481
42.5633,0.724967
42.6299,0.725057
42.6965,0.72523
42.7631,0.724889
42.8297,0.725167
42.8963,0.750039
42.9629,0.749557
43.0295,0.749542
43.0961,0.749718
43.1627,0.749926
43.2294,0.750102
43.296,0.750596
43.3626,0.750827
43.4292,0.75123
43.4958,0.753347
43.5624,0.753684
43.629,0.754028
43.6956,0.753864
43.7622,0.753641
43.8288,0.753836
43.8954,0.75384
43.9621,0.753738
44.0287,0.753711
44.0953,0.754718
44.1619,0.754287
44.2285,0.754342
44.2951,0.753358
44.3617,0.75326
44.4283,0.752857
44.4949,0.752504
44.5615,0.747374
44.6282,0.746947
44.6948,0.746512
44.7614,0.746199
44.828,0.745819
44.8946,0.745921
44.9612,0.747433
45.0278,0.747382
45.0944,0.748754
45.161,0.750388
45.2276,0.750364
45.2942,0.751493
45.3609,0.751423
45.4275,0.75096
45.4941,0.751321
45.5607,0.750678
45.6273,0.750047
45.6939,0.750204
45.7605,0.750329
45.8271,0.751042
45.8937,0.751058
45.9603,0.750768
46.0269,0.750494
46.0936,0.750216
46.1602,0.750584
46.2268,0.759162
46.2934,0.759624
46.36,0.759107
46.4266,0.758586
46.4932,0.758464
46.5598,0.758841
46.6264,0.758331
46.693,0.759107
46.7596,0.759432
46.8263,0.76024
46.8929,0.759511
46.9595,0.761372
47.0261,0.763304
47.0927,0.764076
47.1593,0.764225
47.2259,0.767176
47.2925,0.77211
47.3591,0.772987
47.4257,0.773364
47.4923,0.774523
47.559,0.7743
47.6256,0.780025
47.6922,0.783051
47.7588,0.788145
47.8254,0.790747
47.892,0.831114
47.9586,0.830675
48.0252,0.830851
48.0918,0.830232
48.1584,0.830734
48.225,0.830687
48.2917,0.83229
48.3583,0.83225
48.4249,0.83276
48.4915,0.832642
48.5581,0.831972
48.6247,0.832631
48.6913,0.833391
48.7579,0.833461
48.8245,0.833504
48.8911,0.834578
48.9577,0.836012
49.0244,0.836534
49.091,0.836589
49.1576,0.836487
49.2242,0.838767
49.2908,0.839112
49.3574,0.839265
49.424,0.840527
49.4906,0.840727
49.5572,0.855657
49.6238,0.856453
49.6904,0.856037
49.7571,0.857624
49.8237,0.858729
49.8903,0.859972
49.9569,0.865027
50.0235,0.866696
50.0901,0.867727
50.1567,0.867813
50.2233,0.868483
50.2899,0.869326
50.3565,0.869138
50.4231,0.87125
50.4898,0.870533
50.5564,0.871892
50.623,0.875125
50.6896,0.876348
50.7562,0.881991
50.8228,0.882187
50.8894,0.882516
50.956,0.88321
51.0226,0.884193
51.0892,0.884526
51.1559,0.88377
51.2225,0.891035
51.2891,0.891486
51.3557,0.891474
51.4223,0.891878
51.4889,0.891964
51.5555,0.891545
51.6221,0.89129
51.6887,0.89129
51.7553,0.890483
51.8219,0.890636
51.8886,0.890115
51.9552,0.889347
52.0218,0.889511
52.0884,0.889425
52.155,0.888892
52.2216,0.888751
52.2882,0.888684
52.3548,0.888657
52.4214,0.888183
52.488,0.88814
52.5546,0.887563
52.6213,0.887011
52.6879,0.886862
52.7545,0.886078
52.8211,0.884946
52.8877,0.878456
52.9543,0.878037
53.0209,0.878064
53.0875,0.877778
53.1541,0.877598
53.2207,0.8773
53.2873,0.877269
53.354,0.876321
53.4206,0.873581
53.4872,0.873295
53.5538,0.872182
53.6204,0.871544
53.687,0.871058
53.7536,0.869878
53.8202,0.870153
53.8868,0.87027
53.9534,0.871646
54.02,0.874016
54.0867,0.87781
54.1533,0.886098
54.2199,0.887199
54.2865,0.887877
54.3531,0.889158
54.4197,0.889962
54.4863,0.889915
54.5529,0.896247
54.6195,0.896063
54.6861,0.896153
54.7527,0.898603
54.8194,0.899813
54.886,0.900131
54.9526,0.902341
55.0192,0.902126
55.0858,0.90211
55.1524,0.902071
55.219,0.902745
55.2856,0.903305
55.3522,0.903752
55.4188,0.905656
55.4854,0.905507
55.5521,0.905304
55.6187,0.905394
55.6853,0.905445
55.7519,0.905503
55.8185,0.905523
55.8851,0.905582
55.9517,0.905695
56.0183,0.905805
56.0849,0.905699
56.1515,0.905888
56.2181,0.907964
56.2848,0.907506
56.3514,0.908078
56.418,0.90787
56.4846,0.907933
56.5512,0.907772
56.6178,0.907882
56.6844,0.907827
56.751,0.907835
56.8176,0.907847
56.8842,0.907929
56.9508,0.907749
57.0175,0.9074
57.0841,0.907189
57.1507,0.906949
57.2173,0.907153
57.2839,0.907271
57.3505,0.907145
57.4171,0.907239
57.4837,0.907247
57.5503,0.907165
57.6169,0.907232
57.6836,0.907263
57.7502,0.907236
57.8168,0.907349
57.8834,0.905633
57.95,0.905464
58.0166,0.905441
58.0832,0.905554
58.1498,0.905809
58.2164,0.906346
58.283,0.906209
58.3496,0.90626
58.4163,0.906585
58.4829,0.907631
58.5495,0.907459
58.6161,0.907228
58.6827,0.907157
58.7493,0.907036
58.8159,0.906808
58.8825,0.90682
58.9491,0.906487
59.0157,0.906487
59.0823,0.906405
59.149,0.906499
59.2156,0.906475
59.2822,0.906467
59.3488,0.906526
59.4154,0.906283
59.482,0.906565
59.5486,0.906671
59.6152,0.906742
59.6818,0.906518
59.7484,0.906338
59.815,0.906248
59.8817,0.906334
59.9483,0.906554
60.0149,0.906409
60.0815,0.906526
60.1481,0.906577
60.2147,0.906021
60.2813,0.905758
60.3479,0.905966
60.4145,0.905876
60.4811,0.905833
60.5477,0.905954
60.6144,0.906009
60.681,0.905911
60.7476,0.906142
60.8142,0.906205
60.8808,0.906366
60.9474,0.906546
61.014,0.906471
61.0806,0.90637
61.1472,0.906409
61.2138,0.906452
61.2804,0.906616
61.3471,0.906644
61.4137,0.906663
61.4803,0.906558
61.5469,0.906558
61.6135,0.906479
61.6801,0.906401
61.7467,0.906373
61.8133,0.90642
61.8799,0.904951
61.9465,0.905394
62.0131,0.905358
62.0798,0.90559
62.1464,0.905519
62.213,0.905723
62.2796,0.906048
62.3462,0.905915
62.4128,0.905848
62.4794,0.90586
62.546,0.906232
62.6126,0.905715
62.6792,0.90577
62.7458,0.905425
62.8125,0.905664
62.8791,0.905456
62.9457,0.905249
63.0123,0.905233
63.0789,0.90548
63.1455,0.90537
63.2121,0.905311
63.2787,0.904916
63.3453,0.904974
63.4119,0.905018
63.4785,0.904978
63.5452,0.905515
63.6118,0.905574
63.6784,0.905633
63.745,0.905554
63.8116,0.905609
63.8782,0.905594
63.9448,0.905433
64.0114,0.905402
64.078,0.905233
64.1446,0.9055
64.2112,0.905519
64.2779,0.905739
64.3445,0.905797
64.4111,0.905923
64.4777,0.90608
64.5443,0.905997
64.6109,0.905664
64.6775,0.905652
64.7441,0.905754
64.8107,0.905758
64.8773,0.905621
64.944,0.905233
65.0106,0.904888
65.0772,0.904982
65.1438,0.904822
65.2104,0.904583
65.277,0.904191
65.3436,0.904398
65.4102,0.904347
65.4768,0.904379
65.5434,0.904234
65.61,0.904798
65.6767,0.904536
65.7433,0.905021
65.8099,0.905507
65.8765,0.905159
65.9431,0.905358
66.0097,0.905394
66.0763,0.905276
66.1429,0.905323
66.2095,0.905284
66.2761,0.905249
66.3427,0.905272
66.4094,0.905323
66.476,0.905551
66.5426,0.905809
66.6092,0.906385
66.6758,0.90624
66.7424,0.90633
66.809,0.906052
66.8756,0.906315
66.9422,0.905825
67.0088,0.905684
67.0754,0.905488
67.1421,0.905437
67.2087,0.905112
67.2753,0.904034
67.3419,0.904061
67.4085,0.903991
67.4751,0.903681
67.5417,0.903615
67.6083,0.903591
67.6749,0.903564
67.7415,0.903885
67.8081,0.904104
67.8748,0.903971
67.9414,0.903897
68.008,0.903662
68.0746,0.903646
68.1412,0.903646
68.2078,0.90356
68.2744,0.903552
68.341,0.903646
68.4076,0.903583
68.4742,0.903583
68.5408,0.903278
68.6075,0.903348
68.6741,0.903462
68.7407,0.903231
68.8073,0.903442
68.8739,0.903054
68.9405,0.902576
69.0071,0.902486
69.0737,0.90238
69.1403,0.902451
69.2069,0.902294
69.2735,0.902463
69.3402,0.902216
69.4068,0.902169
69.4734,0.902035
69.54,0.902325
69.6066,0.902255
69.6732,0.902157
69.7398,0.9024
69.8064,0.902482
69.873,0.902678
69.9396,0.902921
70.0062,0.902835
70.0729,0.902592
70.1395,0.902847
70.2061,0.90276
70.2727,0.902678
70.3393,0.902694
70.4059,0.902647
70.4725,0.90305
70.5391,0.903133
70.6057,0.904896
70.6723,0.904453
70.7389,0.903995
70.8056,0.903842
70.8722,0.903434
70.9388,0.903662
71.0054,0.903826
71.072,0.903909
71.1386,0.904042
71.2052,0.904014
71.2718,0.904097
71.3384,0.904653
71.405,0.903748
71.4717,0.903999
71.5383,0.904312
71.6049,0.904269
71.6715,0.903924
71.7381,0.903854
71.8047,0.903807
71.8713,0.903752
71.9379,0.903799
72.0045,0.903838
72.0711,0.903732
72.1377,0.90401
72.2044,0.904007
72.271,0.906428
72.3376,0.906083
72.4042,0.905621
72.4708,0.905637
72.5374,0.905629
72.604,0.905758
72.6706,0.905837
72.7372,0.905809
72.8038,0.905621
72.8704,0.905613
72.9371,0.905637
73.0037,0.905351
73.0703,0.905135
73.1369,0.905472
73.2035,0.905429
73.2701,0.905088
73.3367,0.905037
73.4033,0.904802
73.4699,0.904822
73.5365,0.904912
73.6031,0.904904
73.6698,0.904857
73.7364,0.904606
73.803,0.904849
73.8696,0.904826
73.9362,0.903164
74.0028,0.903591
74.0694,0.903427
74.136,0.903638
74.2026,0.903356
74.2692,0.903242
74.3358,0.90314
74.4025,0.90316
74.4691,0.902937
74.5357,0.903235
74.6023,0.903289
74.6689,0.903517
74.7355,0.903387
74.8021,0.903513
74.8687,0.903611
74.9353,0.903407
75.0019,0.902702
75.0685,0.903462
75.1352,0.903963
75.2018,0.903748
75.2684,0.903869
75.335,0.904661
75.4016,0.904583
75.4682,0.903536
75.5348,0.903983
75.6014,0.904924
75.668,0.90441
75.7346,0.903195
75.8012,0.902894
75.8679,0.902365
75.9345,0.902737
76.0011,0.902416
76.0677,0.901981
76.1343,0.90077
76.2009,0.901777
76.2675,0.903419
76.3341,0.901107
76.4007,0.901883
76.4673,0.903536
76.5339,0.903654
76.6006,0.903936
76.6672,0.90459
76.7338,0.90459
76.8004,0.90459
76.867,0.903536
76.9336,0.903376
77.0002,0.902764
77.0668,0.903184
77.1334,0.904046
77.2,0.903481
77.2666,0.90383
77.3333,0.903783
77.3999,0.903399
77.4665,0.90363
77.5331,0.904884
77.5997,0.904931
77.6663,0.904653
77.7329,0.905304
77.7995,0.905049
77.8661,0.905182
77.9327,0.905453
77.9994,0.904747
78.066,0.904465
78.1326,0.904649
78.1992,0.904704
78.2658,0.904688
78.3324,0.904661
78.399,0.904716
78.4656,0.904524
78.5322,0.905057
78.5988,0.905088
78.6654,0.90539
78.7321,0.905527
78.7987,0.905919
78.8653,0.905997
78.9319,0.904673
78.9985,0.905084
79.0651,0.904735
79.1317,0.905143
79.1983,0.904943
