time (in seconds),queue density
0.0666092,0.0300489
0.133218,0.0422911
0.199828,0.0609913
0.266437,0.0733902
0.333046,0.0796131
0.399655,0.0899116
0.466264,0.0982036
0.532873,0.103094
0.599483,0.109035
0.666092,0.114553
0.732701,0.116763
0.79931,0.119239
0.865919,0.122468
0.932529,0.123973
0.999138,0.127453
1.06575,0.129898
1.13236,0.131199
1.19897,0.132939
1.26557,0.134711
1.33218,0.135165
1.39879,0.138002
1.4654,0.139429
1.53201,0.140573
1.59862,0.142376
1.66523,0.14573
1.73184,0.146906
1.79845,0.149461
1.86506,0.153082
1.93167,0.154242
1.99828,0.154994
2.06488,0.155793
2.13149,0.156295
2.1981,0.156342
2.26471,0.156358
2.33132,0.157063
2.39793,0.157047
2.46454,0.156844
2.53115,0.157549
2.59776,0.157518
2.66437,0.158333
2.73098,0.158286
2.79759,0.158396
2.86419,0.158411
2.9308,0.158662
2.99741,0.158254
3.06402,0.158521
3.13063,0.159336
3.19724,0.160245
3.26385,0.16048
3.33046,0.161734
3.39707,0.162612
3.46368,0.164336
3.53029,0.164493
3.5969,0.166766
3.6635,0.16896
3.73011,0.16871
3.79672,0.169776
3.86333,0.170653
3.92994,0.171547
3.99655,0.172142
4.06316,0.171186
4.12977,0.170841
4.19638,0.169337
4.26299,0.167565
4.3296,0.167424
4.39621,0.167048
4.46282,0.166296
4.52942,0.166155
4.59603,0.167926
4.66264,0.16965
4.72925,0.170277
4.79586,0.172425
4.86247,0.173224
4.92908,0.173882
4.99569,0.175074
5.0623,0.176249
5.12891,0.177127
5.19552,0.180654
5.26213,0.184087
5.32873,0.186799
5.39534,0.188821
5.46195,0.191172
5.52856,0.193382
5.59517,0.198837
5.66178,0.20484
5.72839,0.207803
5.795,0.214966
5.86161,0.221769
5.92822,0.224779
5.99483,0.231268
6.06144,0.238401
6.12804,0.239937
6.19465,0.243275
6.26126,0.244984
6.32787,0.245815
6.39448,0.249138
6.46109,0.250878
6.5277,0.252053
6.59431,0.254342
6.66092,0.256286
6.72753,0.254922
6.79414,0.25384
6.86075,0.252477
6.92735,0.251301
6.99396,0.24815
7.06057,0.246661
7.12718,0.246457
7.19379,0.246254
7.2604,0.247147
7.32701,0.249232
7.39362,0.252367
7.46023,0.255047
7.52684,0.257352
7.59345,0.261646
7.66006,0.263919
7.72666,0.265769
7.79327,0.268638
7.85988,0.269296
7.92649,0.267964
7.9931,0.268105
8.05971,0.267634
8.12632,0.267305
8.19293,0.268888
8.25954,0.26986
8.32615,0.269343
8.39276,0.270738
8.45937,0.273606
8.52598,0.274531
8.59258,0.276726
8.65919,0.283184
8.7258,0.285551
8.79241,0.287714
8.85902,0.288905
8.92563,0.29088
8.99224,0.291382
9.05885,0.293953
9.12546,0.296304
9.19207,0.296884
9.25868,0.298483
9.32529,0.298514
9.39189,0.297291
9.4585,0.29726
9.52511,0.296492
9.59172,0.292369
9.65833,0.29262
9.72494,0.292166
9.79155,0.290128
9.85816,0.290097
9.92477,0.289438
9.99138,0.287808
10.058,0.286413
10.1246,0.286946
10.1912,0.286021
10.2578,0.285331
10.3244,0.284218
10.391,0.281366
10.4576,0.279704
10.5243,0.279391
10.5909,0.278905
10.6575,0.27856
10.7241,0.27798
10.7907,0.275409
10.8573,0.273591
10.9239,0.273528
10.9905,0.272525
11.0571,0.272102
11.1237,0.273058
11.1903,0.271914
11.257,0.270252
11.3236,0.271287
11.3902,0.269578
11.4568,0.268387
11.5234,0.269014
11.59,0.269594
11.6566,0.26823
11.7232,0.268152
11.7898,0.267446
11.8564,0.267195
11.923,0.266521
11.9897,0.266757
12.0563,0.265753
12.1229,0.265691
12.1895,0.26486
12.2561,0.264154
12.3227,0.263136
12.3893,0.262054
12.4559,0.261396
12.5225,0.261835
12.5891,0.261239
12.6557,0.260894
12.7224,0.26069
12.789,0.260345
12.8556,0.259609
12.9222,0.257461
12.9888,0.257163
13.0554,0.257038
13.122,0.256819
13.1886,0.256489
13.2552,0.256975
13.3218,0.256787
13.3884,0.256834
13.4551,0.257226
13.5217,0.257383
13.5883,0.257414
13.6549,0.257163
13.7215,0.256678
13.7881,0.256098
13.8547,0.256129
13.9213,0.256019
13.9879,0.256364
14.0545,0.256536
14.1211,0.256599
14.1878,0.25569
14.2544,0.255862
14.321,0.255314
14.3876,0.255345
14.4542,0.255267
14.5208,0.255314
14.5874,0.255016
14.654,0.255282
14.7206,0.255282
14.7872,0.255
14.8538,0.254812
14.9205,0.254311
14.9871,0.25453
15.0537,0.25464
15.1203,0.254467
15.1869,0.254311
15.2535,0.254248
15.3201,0.254185
15.3867,0.253825
15.4533,0.254279
15.5199,0.254389
15.5865,0.254389
15.6532,0.254467
15.7198,0.254138
15.7864,0.253966
15.853,0.252774
15.9196,0.251944
15.9862,0.252727
16.0528,0.25453
16.1194,0.254467
16.186,0.254624
16.2526,0.25453
16.3192,0.255157
16.3859,0.255533
16.4525,0.254953
16.5191,0.254405
16.5857,0.254389
16.6523,0.253919
16.7189,0.253731
16.7855,0.252916
16.8521,0.252963
16.9187,0.252821
16.9853,0.253088
17.052,0.25337
17.1186,0.253041
17.1852,0.25395
17.2518,0.25384
17.3184,0.253527
17.385,0.253762
17.4516,0.254013
17.5182,0.254138
17.5848,0.254389
17.6514,0.254734
17.718,0.254499
17.7847,0.254326
17.8513,0.254311
17.9179,0.253966
17.9845,0.254264
18.0511,0.253746
18.1177,0.253762
18.1843,0.253543
18.2509,0.253558
18.3175,0.253292
18.3841,0.253715
18.4507,0.254311
18.5174,0.254514
18.584,0.255706
18.6506,0.257681
18.7172,0.259029
18.7838,0.26091
18.8504,0.263512
18.917,0.263245
18.9836,0.265048
19.0502,0.265863
19.1168,0.265941
19.1834,0.265267
19.2501,0.263559
19.3167,0.262587
19.3833,0.26149
19.4499,0.259593
19.5165,0.25917
19.5831,0.258229
19.6497,0.25743
19.7163,0.256975
19.7829,0.255188
19.8495,0.253151
19.9161,0.252978
19.9828,0.252006
20.0494,0.251332
20.116,0.250846
20.1826,0.250721
20.2492,0.250408
20.3158,0.250784
20.3824,0.251176
20.449,0.251317
20.5156,0.251003
20.5822,0.251505
20.6488,0.253135
20.7155,0.252727
20.7821,0.252069
20.8487,0.252978
20.9153,0.252665
20.9819,0.253684
21.0485,0.253887
21.1151,0.253354
21.1817,0.252806
21.2483,0.255502
21.3149,0.255173
21.3815,0.254091
21.4482,0.253919
21.5148,0.254044
21.5814,0.254279
21.648,0.254687
21.7146,0.255032
21.7812,0.254985
21.8478,0.255126
21.9144,0.255345
21.981,0.255471
22.0476,0.255063
22.1142,0.254906
22.1809,0.255659
22.2475,0.255941
22.3141,0.255972
22.3807,0.256176
22.4473,0.256301
22.5139,0.256787
22.5805,0.25696
22.6471,0.25754
22.7137,0.258433
22.7803,0.259374
22.8469,0.260722
22.9136,0.259044
22.9802,0.260361
23.0468,0.262524
23.1134,0.263731
23.18,0.264107
23.2466,0.264358
23.3132,0.263794
23.3798,0.263371
23.4464,0.262775
23.513,0.2629
23.5796,0.262728
23.6463,0.262634
23.7129,0.262885
23.7795,0.263042
23.8461,0.263527
23.9127,0.263245
23.9793,0.263653
24.0459,0.263606
24.1125,0.264092
24.1791,0.264311
24.2457,0.264343
24.3124,0.26417
24.379,0.26381
24.4456,0.263386
24.5122,0.263339
24.5788,0.264296
24.6454,0.264092
24.712,0.264186
24.7786,0.263731
24.8452,0.263292
24.9118,0.263292
24.9784,0.262822
25.0451,0.263057
25.1117,0.262759
25.1783,0.262038
25.2449,0.262383
25.3115,0.262728
25.3781,0.263136
25.4447,0.263904
25.5113,0.264578
25.5779,0.267227
25.6445,0.26975
25.7111,0.270754
25.7778,0.272211
25.8444,0.274422
25.911,0.275409
25.9776,0.277368
26.0442,0.278074
26.1108,0.278575
26.1774,0.279046
26.244,0.279406
26.3106,0.28019
26.3772,0.280409
26.4438,0.280989
26.5105,0.280739
26.5771,0.281381
26.6437,0.281805
26.7103,0.281569
26.7769,0.282432
26.8435,0.283466
26.9101,0.285128
26.9767,0.287636
27.0433,0.290786
27.1099,0.292448
27.1765,0.296398
27.2432,0.299799
27.3098,0.302354
27.3764,0.307355
27.443,0.313452
27.5096,0.31549
27.5762,0.320694
27.6428,0.325679
27.7094,0.328155
27.776,0.33314
27.8426,0.337294
27.9092,0.340256
27.9759,0.344363
28.0425,0.349661
28.1091,0.352169
28.1757,0.358267
28.2423,0.364427
28.3089,0.366841
28.3755,0.373158
28.4421,0.378378
28.5087,0.380729
28.5753,0.386404
28.6419,0.391216
28.7086,0.393614
28.7752,0.399194
28.8418,0.404007
28.9084,0.406295
28.975,0.409947
29.0416,0.413459
29.1082,0.414713
29.1748,0.418302
29.2414,0.420481
29.308,0.419619
29.3746,0.422503
29.4413,0.425607
29.5079,0.426155
29.5745,0.433193
29.6411,0.434635
29.7077,0.435686
29.7743,0.436673
29.8409,0.439118
29.9075,0.438946
29.9741,0.441564
30.0407,0.443805
30.1073,0.444103
30.174,0.446956
30.2406,0.448664
30.3072,0.448163
30.3738,0.449699
30.4404,0.452521
30.507,0.453618
30.5736,0.455514
30.6402,0.457787
30.7068,0.458618
30.7734,0.46111
30.8401,0.462082
30.9067,0.462161
30.9733,0.464073
31.0399,0.46423
31.1065,0.46459
31.1731,0.464763
31.2397,0.471017
31.3063,0.470672
31.3729,0.470829
31.4395,0.470923
31.5061,0.47108
31.5728,0.470798
31.6394,0.47086
31.706,0.470437
31.7726,0.470233
31.8392,0.471299
31.9058,0.471487
31.9724,0.471487
32.039,0.470892
32.1056,0.470939
32.1722,0.471926
32.2388,0.47224
32.3055,0.472976
32.3721,0.472882
32.4387,0.472349
32.5053,0.472177
32.5719,0.472271
32.6385,0.472992
32.7051,0.472522
32.7717,0.472616
32.8383,0.472396
32.9049,0.472193
32.9715,0.472099
33.0382,0.473274
33.1048,0.472976
33.1714,0.472976
33.238,0.475688
33.3046,0.477522
33.3712,0.481394
33.4378,0.487084
33.5044,0.490767
33.571,0.495862
33.6376,0.500063
33.7042,0.502053
33.7709,0.506066
33.8375,0.509938
33.9041,0.511302
33.9707,0.514123
34.0373,0.516882
34.1039,0.51754
34.1705,0.520566
34.2371,0.521804
34.3037,0.523121
34.3703,0.524813
34.4369,0.529249
34.5036,0.531052
34.5702,0.542855
34.6368,0.545301
34.7034,0.545598
34.77,0.550019
34.8366,0.555035
34.9032,0.556806
34.9698,0.559988
35.0364,0.560161
35.103,0.560552
35.1696,0.560646
35.2363,0.561493
35.3029,0.562136
35.3695,0.562951
35.4361,0.564393
35.5027,0.56502
35.5693,0.567998
35.6359,0.569362
35.7025,0.57013
35.7691,0.572622
35.8357,0.57455
35.9023,0.575224
35.969,0.57593
36.0356,0.577105
36.1022,0.578359
36.1688,0.580695
36.2354,0.581886
36.302,0.582262
36.3686,0.582262
36.4352,0.582544
36.5018,0.582262
36.5684,0.58129
36.635,0.581463
36.7017,0.581431
36.7683,0.581134
36.8349,0.579723
36.9015,0.580068
36.9681,0.579566
37.0347,0.580146
37.1013,0.580256
37.1679,0.579566
37.2345,0.580616
37.3011,0.579347
37.3678,0.578673
37.4344,0.578265
37.501,0.577967
37.5676,0.57745
37.6342,0.57582
37.7008,0.576306
37.7674,0.576196
37.834,0.574597
37.9006,0.569707
37.9672,0.571588
38.0338,0.573155
38.1005,0.573233
38.1671,0.574691
38.2337,0.577356
38.3003,0.578626
38.3669,0.580444
38.4335,0.582999
38.5001,0.584723
38.5667,0.588517
38.6333,0.592451
38.6999,0.593689
38.7665,0.597843
38.8332,0.601872
38.8998,0.604427
38.9664,0.608001
39.033,0.611324
39.0996,0.61333
39.1662,0.617045
39.2328,0.61949
39.2994,0.620807
39.366,0.623064
39.4326,0.629538
39.4992,0.629977
39.5659,0.642626
39.6325,0.647972
39.6991,0.651624
39.7657,0.6549
39.8323,0.658615
39.8989,0.659994
39.9655,0.663944
40.0321,0.666797
40.0987,0.667471
40.1653,0.670199
40.2319,0.673506
40.2986,0.67487
40.3652,0.681673
40.4318,0.686501
40.4984,0.688303
40.565,0.692222
40.6316,0.695937
40.6982,0.697144
40.7648,0.699621
40.8314,0.702207
40.898,0.702912
40.9646,0.702928
41.0313,0.703806
41.0979,0.704621
41.1645,0.704982
41.2311,0.722005
41.2977,0.722616
41.3643,0.722443
41.4309,0.721942
41.4975,0.721174
41.5641,0.721315
41.6307,0.720829
41.6973,0.720531
41.764,0.720798
41.8306,0.721581
41.8972,0.724121
41.9638,0.725814
42.0304,0.728572
42.097,0.728792
42.1636,0.729419
42.2302,0.73003
42.2968,0.732805
42.3634,0.733149
42.43,0.734764
42.4967,0.735814
42.5633,0.735281
42.6299,0.735595
42.6965,0.73594
42.7631,0.73572
42.8297,0.735689
42.8963,0.762321
42.9629,0.762368
43.0295,0.762179
43.0961,0.761114
43.1627,0.762258
43.2294,0.761678
43.296,0.762493
43.3626,0.763575
43.4292,0.764076
43.4958,0.766302
43.5624,0.766898
43.629,0.766929
43.6956,0.766929
43.7622,0.765957
43.8288,0.765393
43.8954,0.765095
43.9621,0.764891
44.0287,0.764186
44.0953,0.765095
44.1619,0.765111
44.2285,0.765487
44.2951,0.764531
44.3617,0.764781
44.4283,0.764781
44.4949,0.764311
44.5615,0.760001
44.6282,0.758574
44.6948,0.758825
44.7614,0.758323
44.828,0.757163
44.8946,0.757665
44.9612,0.75906
45.0278,0.758762
45.0944,0.760251
45.161,0.761349
45.2276,0.761662
45.2942,0.762524
45.3609,0.762759
45.4275,0.761474
45.4941,0.761897
45.5607,0.761333
45.6273,0.760408
45.6939,0.760518
45.7605,0.760471
45.8271,0.761239
45.8937,0.762164
45.9603,0.761521
46.0269,0.760377
46.0936,0.761913
46.1602,0.761067
46.2268,0.77113
46.2934,0.771224
46.36,0.770613
46.4266,0.770142
46.4932,0.769265
46.5598,0.769343
46.6264,0.768935
46.693,0.769656
46.7596,0.770064
46.8263,0.77055
46.8929,0.771381
46.9595,0.7724
47.0261,0.77392
47.0927,0.774469
47.1593,0.775848
47.2259,0.777541
47.2925,0.782228
47.3591,0.78403
47.4257,0.783717
47.4923,0.78577
47.559,0.785598
47.6256,0.791366
47.6922,0.794642
47.7588,0.799141
47.8254,0.80226
47.892,0.842498
47.9586,0.842592
48.0252,0.842561
48.0918,0.842467
48.1584,0.843188
48.225,0.843094
48.2917,0.843485
48.3583,0.842796
48.4249,0.843141
48.4915,0.843376
48.5581,0.842529
48.6247,0.843564
48.6913,0.844379
48.7579,0.844504
48.8245,0.844849
48.8911,0.845978
48.9577,0.848
49.0244,0.848784
49.091,0.848674
49.1576,0.848862
49.2242,0.851527
49.2908,0.851198
49.3574,0.851527
49.424,0.852263
49.4906,0.852185
49.5572,0.86427
49.6238,0.865462
49.6904,0.864835
49.7571,0.866136
49.8237,0.866935
49.8903,0.86775
49.9569,0.874052
50.0235,0.874773
50.0901,0.875165
50.1567,0.874914
50.2233,0.874992
50.2899,0.875603
50.3565,0.876183
50.4231,0.877767
50.4898,0.877437
50.5564,0.877798
50.623,0.881121
50.6896,0.882375
50.7562,0.887767
50.8228,0.88794
50.8894,0.888692
50.956,0.888551
51.0226,0.889476
51.0892,0.890181
51.1559,0.890322
51.2225,0.896169
51.2891,0.896091
51.3557,0.896404
51.4223,0.896404
51.4889,0.896373
51.5555,0.896028
51.6221,0.895856
51.6887,0.896059
51.7553,0.895793
51.8219,0.895573
51.8886,0.895401
51.9552,0.894507
52.0218,0.89468
52.0884,0.8941
52.155,0.893379
52.2216,0.893301
52.2882,0.893316
52.3548,0.893363
52.4214,0.893034
52.488,0.893128
52.5546,0.892564
52.6213,0.892047
52.6879,0.891999
52.7545,0.891623
52.8211,0.890322
52.8877,0.883253
52.9543,0.883253
53.0209,0.883347
53.0875,0.883425
53.1541,0.88341
53.2207,0.883817
53.2873,0.883253
53.354,0.882359
53.4206,0.880102
53.4872,0.879585
53.5538,0.879115
53.6204,0.878206
53.687,0.877767
53.7536,0.875995
53.8202,0.877249
53.8868,0.876685
53.9534,0.877767
54.02,0.880494
54.0867,0.88366
54.1533,0.892454
54.2199,0.893442
54.2865,0.894272
54.3531,0.895213
54.4197,0.895824
54.4863,0.895495
54.5529,0.900683
54.6195,0.899931
54.6861,0.899602
54.7527,0.899962
54.8194,0.901185
54.886,0.901467
54.9526,0.904022
55.0192,0.903975
55.0858,0.903583
55.1524,0.903301
55.219,0.90327
55.2856,0.903019
55.3522,0.903552
55.4188,0.905386
55.4854,0.905668
55.5521,0.90584
55.6187,0.905919
55.6853,0.905997
55.7519,0.906546
55.8185,0.906734
55.8851,0.906828
55.9517,0.906891
56.0183,0.907016
56.0849,0.906891
56.1515,0.907079
56.2181,0.907283
56.2848,0.907236
56.3514,0.907408
56.418,0.90722
56.4846,0.906906
56.5512,0.906953
56.6178,0.907267
56.6844,0.907361
56.751,0.907549
56.8176,0.907032
56.8842,0.90711
56.9508,0.907047
57.0175,0.906953
57.0841,0.906687
57.1507,0.906624
57.2173,0.906624
57.2839,0.906546
57.3505,0.906797
57.4171,0.906546
57.4837,0.906499
57.5503,0.906797
57.6169,0.907
57.6836,0.906906
57.7502,0.906985
57.8168,0.907
57.8834,0.905496
57.95,0.905166
58.0166,0.905166
58.0832,0.905166
58.1498,0.905041
58.2164,0.905684
58.283,0.905903
58.3496,0.905825
58.4163,0.905856
58.4829,0.906812
58.5495,0.907549
58.6161,0.907518
58.6827,0.907063
58.7493,0.906844
58.8159,0.907
58.8825,0.906687
58.9491,0.906467
59.0157,0.906264
59.0823,0.906483
59.149,0.906373
59.2156,0.906342
59.2822,0.906326
59.3488,0.90642
59.4154,0.906295
59.482,0.906389
59.5486,0.906515
59.6152,0.906797
59.6818,0.906734
59.7484,0.906703
59.815,0.90653
59.8817,0.906546
59.9483,0.906671
60.0149,0.906875
60.0815,0.906922
60.1481,0.907047
60.2147,0.907361
60.2813,0.907047
60.3479,0.906985
60.4145,0.906765
60.4811,0.906969
60.5477,0.906875
60.6144,0.906953
60.681,0.907063
60.7476,0.907314
60.8142,0.907502
60.8808,0.908004
60.9474,0.90791
61.014,0.908207
61.0806,0.908019
61.1472,0.908051
61.2138,0.908051
61.2804,0.907957
61.3471,0.907972
61.4137,0.907847
61.4803,0.907643
61.5469,0.90769
61.6135,0.907455
61.6801,0.907298
61.7467,0.907204
61.8133,0.907094
61.8799,0.905261
61.9465,0.905449
62.0131,0.905386
62.0798,0.905292
62.1464,0.905355
62.213,0.905684
62.2796,0.90606
62.3462,0.90595
62.4128,0.905684
62.4794,0.905558
62.546,0.905903
62.6126,0.905402
62.6792,0.905402
62.7458,0.905151
62.8125,0.905041
62.8791,0.905057
62.9457,0.904728
63.0123,0.904602
63.0789,0.904822
63.1455,0.904618
63.2121,0.904743
63.2787,0.904163
63.3453,0.904101
63.4119,0.90421
63.4785,0.904445
63.5452,0.905982
63.6118,0.905543
63.6784,0.905809
63.745,0.905574
63.8116,0.905699
63.8782,0.905464
63.9448,0.905417
64.0114,0.905198
64.078,0.905292
64.1446,0.905605
64.2112,0.905621
64.2779,0.905511
64.3445,0.905637
64.4111,0.90559
64.4777,0.905605
64.5443,0.905386
64.6109,0.905198
64.6775,0.904916
64.7441,0.904759
64.8107,0.904508
64.8773,0.904571
64.944,0.904195
65.0106,0.904257
65.0772,0.904179
65.1438,0.904148
65.2104,0.904916
65.277,0.904822
65.3436,0.904775
65.4102,0.905135
65.4768,0.905151
65.5434,0.905308
65.61,0.905793
65.6767,0.905731
65.7433,0.90606
65.8099,0.906358
65.8765,0.906358
65.9431,0.906373
66.0097,0.906483
66.0763,0.906279
66.1429,0.906467
66.2095,0.906013
66.2761,0.906091
66.3427,0.906123
66.4094,0.906436
66.476,0.906295
66.5426,0.906467
66.6092,0.907173
66.6758,0.906953
66.7424,0.907157
66.809,0.907063
66.8756,0.906828
66.9422,0.906891
67.0088,0.906703
67.0754,0.90675
67.1421,0.906515
67.2087,0.906279
67.2753,0.904069
67.3419,0.904038
67.4085,0.903787
67.4751,0.903521
67.5417,0.903568
67.6083,0.903332
67.6749,0.903285
67.7415,0.903395
67.8081,0.903803
67.8748,0.903834
67.9414,0.903489
68.008,0.903552
68.0746,0.903536
68.1412,0.903442
68.2078,0.903223
68.2744,0.903254
68.341,0.903505
68.4076,0.903317
68.4742,0.903364
68.5408,0.903003
68.6075,0.903129
68.6741,0.902988
68.7407,0.903035
68.8073,0.902941
68.8739,0.90258
68.9405,0.902627
69.0071,0.902831
69.0737,0.902643
69.1403,0.90247
69.2069,0.902643
69.2735,0.902831
69.3402,0.902345
69.4068,0.902408
69.4734,0.902392
69.54,0.902533
69.6066,0.90222
69.6732,0.901953
69.7398,0.902173
69.8064,0.902753
69.873,0.902737
69.9396,0.902956
70.0062,0.902737
70.0729,0.9028
70.1395,0.90305
70.2061,0.902941
70.2727,0.902988
70.3393,0.902878
70.4059,0.902925
70.4725,0.902988
70.5391,0.903583
70.6057,0.906217
70.6723,0.905511
70.7389,0.905119
70.8056,0.905041
70.8722,0.904712
70.9388,0.904759
71.0054,0.90479
71.072,0.904728
71.1386,0.904947
71.2052,0.904367
71.2718,0.90479
71.3384,0.904884
71.405,0.904289
71.4717,0.904555
71.5383,0.904257
71.6049,0.904054
71.6715,0.903928
71.7381,0.903897
71.8047,0.903865
71.8713,0.904085
71.9379,0.903991
72.0045,0.903834
72.0711,0.903881
72.1377,0.904116
72.2044,0.904101
72.271,0.906797
72.3376,0.906248
72.4042,0.905888
72.4708,0.906295
72.5374,0.906201
72.604,0.906232
72.6706,0.90642
72.7372,0.906436
72.8038,0.906405
72.8704,0.906358
72.9371,0.906044
73.0037,0.905903
73.0703,0.905621
73.1369,0.905621
73.2035,0.905919
73.2701,0.905762
73.3367,0.905621
73.4033,0.905402
73.4699,0.905151
73.5365,0.905025
73.6031,0.905339
73.6698,0.905308
73.7364,0.905088
73.803,0.905119
73.8696,0.905213
73.9362,0.904226
74.0028,0.904884
74.0694,0.905104
74.136,0.904508
74.2026,0.904383
74.2692,0.904304
74.3358,0.904007
74.4025,0.90432
74.4691,0.904242
74.5357,0.904304
74.6023,0.904022
74.6689,0.903959
74.7355,0.903944
74.8021,0.904179
74.8687,0.904351
74.9353,0.904101
75.0019,0.90316
75.0685,0.903536
75.1352,0.903536
75.2018,0.903113
75.2684,0.903756
75.335,0.904054
75.4016,0.904038
75.4682,0.903317
75.5348,0.903489
75.6014,0.90421
75.668,0.903599
75.7346,0.902502
75.8012,0.902079
75.8679,0.902658
75.9345,0.902533
76.0011,0.901828
76.0677,0.901687
76.1343,0.899947
76.2009,0.901608
76.2675,0.902455
76.3341,0.899696
76.4007,0.90073
76.4673,0.903082
76.5339,0.903066
76.6006,0.903238
76.6672,0.903646
76.7338,0.904022
76.8004,0.904414
76.867,0.903317
76.9336,0.903019
77.0002,0.902753
77.0668,0.903348
77.1334,0.904007
77.2,0.903709
77.2666,0.903301
77.3333,0.903066
77.3999,0.90269
77.4665,0.902361
77.5331,0.903803
77.5997,0.903959
77.6663,0.903442
77.7329,0.904116
77.7995,0.903991
77.8661,0.904916
77.9327,0.904367
77.9994,0.903818
78.066,0.903803
78.1326,0.904022
78.1992,0.904618
78.2658,0.904571
78.3324,0.904289
78.399,0.904163
78.4656,0.904163
78.5322,0.905135
78.5988,0.904759
78.6654,0.905025
78.7321,0.905151
78.7987,0.905668
78.8653,0.905527
78.9319,0.906609
78.9985,0.905966
79.0651,0.906264
79.1317,0.905433
