time (in seconds),queue density
0.0666092,0.0324112
0.133218,0.0437108
0.199828,0.0625553
0.266437,0.0762991
0.333046,0.0819666
0.399655,0.0921682
0.466264,0.100988
0.532873,0.10662
0.599483,0.112146
0.666092,0.116291
0.732701,0.11877
0.79931,0.121675
0.865919,0.125288
0.932529,0.126032
0.999138,0.129361
1.06575,0.132656
1.13236,0.132904
1.19897,0.135277
1.26557,0.138713
1.33218,0.138748
1.39879,0.141086
1.4654,0.142999
1.53201,0.14353
1.59862,0.144947
1.66523,0.148418
1.73184,0.149623
1.79845,0.151252
1.86506,0.153909
1.93167,0.156318
1.99828,0.156955
2.06488,0.15908
2.13149,0.158337
2.1981,0.158514
2.26471,0.158407
2.33132,0.158372
2.39793,0.15986
2.46454,0.158407
2.53115,0.15901
2.59776,0.158832
2.66437,0.159718
2.73098,0.161206
2.79759,0.160604
2.86419,0.159506
2.9308,0.162446
2.99741,0.162233
3.06402,0.160568
3.13063,0.160993
3.19724,0.160568
3.26385,0.163473
3.33046,0.161525
3.39707,0.163827
3.46368,0.165386
3.53029,0.166094
3.5969,0.169353
3.6635,0.170486
3.73011,0.170947
3.79672,0.171301
3.86333,0.171762
3.92994,0.172541
3.99655,0.173462
4.06316,0.174064
4.12977,0.172009
4.19638,0.172222
4.26299,0.171053
4.3296,0.170911
4.39621,0.169636
4.46282,0.168007
4.52942,0.167582
4.59603,0.169176
4.66264,0.170061
4.72925,0.170486
4.79586,0.172257
4.86247,0.173497
4.92908,0.173781
4.99569,0.174985
5.0623,0.175941
5.12891,0.177535
5.19552,0.180971
5.26213,0.184266
5.32873,0.187099
5.39534,0.188091
5.46195,0.192058
5.52856,0.193582
5.59517,0.199355
5.66178,0.204633
5.72839,0.206971
5.795,0.214091
5.86161,0.220857
5.92822,0.223974
5.99483,0.231625
6.06144,0.236974
6.12804,0.238851
6.19465,0.242854
6.26126,0.244129
6.32787,0.245829
6.39448,0.249548
6.46109,0.252205
6.5277,0.251001
6.59431,0.254153
6.66092,0.255747
6.72753,0.255464
6.79414,0.25302
6.86075,0.252382
6.92735,0.251745
6.99396,0.247671
7.06057,0.246537
7.12718,0.245652
7.19379,0.244802
7.2604,0.247175
7.32701,0.248592
7.39362,0.251532
7.46023,0.254614
7.52684,0.255889
7.59345,0.260813
7.66006,0.263469
7.72666,0.265099
7.79327,0.267472
7.85988,0.270164
7.92649,0.268464
7.9931,0.266657
8.05971,0.26811
8.12632,0.266799
8.19293,0.268251
8.25954,0.270306
8.32615,0.269349
8.39276,0.269739
8.45937,0.274308
8.52598,0.273104
8.59258,0.277355
8.65919,0.282668
8.7258,0.28366
8.79241,0.285962
8.85902,0.287733
8.92563,0.288902
8.99224,0.291665
9.05885,0.294499
9.12546,0.296376
9.19207,0.294605
9.25868,0.299954
9.32529,0.298927
9.39189,0.298218
9.4585,0.297439
9.52511,0.29751
9.59172,0.296199
9.65833,0.295739
9.72494,0.294995
9.79155,0.293224
9.85816,0.28954
9.92477,0.288761
9.99138,0.288867
10.058,0.286777
10.1246,0.286989
10.1912,0.283979
10.2578,0.283908
10.3244,0.283235
10.391,0.280366
10.4576,0.279976
10.5243,0.279693
10.5909,0.278807
10.6575,0.27863
10.7241,0.277567
10.7907,0.274273
10.8573,0.272608
10.9239,0.273706
10.9905,0.273069
11.0571,0.273175
11.1237,0.271793
11.1903,0.27275
11.257,0.272006
11.3236,0.27406
11.3902,0.2719
11.4568,0.269172
11.5234,0.268853
11.59,0.270624
11.6566,0.269597
11.7232,0.269491
11.7898,0.267259
11.8564,0.267684
11.923,0.267189
11.9897,0.267153
12.0563,0.267649
12.1229,0.267862
12.1895,0.266586
12.2561,0.265417
12.3227,0.264071
12.3893,0.263717
12.4559,0.262477
12.5225,0.261521
12.5891,0.262442
12.6557,0.261344
12.7224,0.262477
12.789,0.261627
12.8556,0.261804
12.9222,0.259289
12.9888,0.259148
13.0554,0.258368
13.122,0.258121
13.1886,0.258652
13.2552,0.257908
13.3218,0.257341
13.3884,0.257129
13.4551,0.256881
13.5217,0.257447
13.5883,0.257943
13.6549,0.257625
13.7215,0.256952
13.7881,0.257058
13.8547,0.256774
13.9213,0.2572
13.9879,0.257518
14.0545,0.257589
14.1211,0.257518
14.1878,0.256739
14.2544,0.257129
14.321,0.256987
14.3876,0.255995
14.4542,0.255853
14.5208,0.255924
14.5874,0.255924
14.654,0.255747
14.7206,0.256527
14.7872,0.255995
14.8538,0.256066
14.9205,0.256137
14.9871,0.255499
15.0537,0.255322
15.1203,0.25557
15.1869,0.255145
15.2535,0.25518
15.3201,0.256385
15.3867,0.25596
15.4533,0.256491
15.5199,0.256137
15.5865,0.25518
15.6532,0.255783
15.7198,0.255641
15.7864,0.254791
15.853,0.254295
15.9196,0.253834
15.9862,0.253834
16.0528,0.256774
16.1194,0.256739
16.186,0.25681
16.2526,0.255641
16.3192,0.256527
16.3859,0.256881
16.4525,0.25511
16.5191,0.255747
16.5857,0.254437
16.6523,0.254862
16.7189,0.254649
16.7855,0.253409
16.8521,0.252843
16.9187,0.252666
16.9853,0.253126
17.052,0.252984
17.1186,0.252736
17.1852,0.253622
17.2518,0.253197
17.3184,0.252559
17.385,0.25263
17.4516,0.253339
17.5182,0.253374
17.5848,0.253799
17.6514,0.253834
17.718,0.253197
17.7847,0.253303
17.8513,0.253693
17.9179,0.25472
17.9845,0.254791
18.0511,0.253764
18.1177,0.253764
18.1843,0.253622
18.2509,0.25387
18.3175,0.25348
18.3841,0.254118
18.4507,0.254649
18.5174,0.254507
18.584,0.255676
18.6506,0.257837
18.7172,0.259006
18.7838,0.259785
18.8504,0.262655
18.917,0.263611
18.9836,0.26563
19.0502,0.266551
19.1168,0.266905
19.1834,0.266693
19.2501,0.264674
19.3167,0.263292
19.3833,0.26184
19.4499,0.259821
19.5165,0.259608
19.5831,0.258368
19.6497,0.257873
19.7163,0.257943
19.7829,0.255712
19.8495,0.253976
19.9161,0.253941
19.9828,0.25263
20.0494,0.251426
20.116,0.250682
20.1826,0.250859
20.2492,0.25093
20.3158,0.25139
20.3824,0.251709
20.449,0.25217
20.5156,0.252453
20.5822,0.252736
20.6488,0.25387
20.7155,0.253551
20.7821,0.252878
20.8487,0.252913
20.9153,0.252311
20.9819,0.252666
21.0485,0.253161
21.1151,0.253268
21.1817,0.253374
21.2483,0.257164
21.3149,0.25642
21.3815,0.255606
21.4482,0.255853
21.5148,0.255924
21.5814,0.255428
21.648,0.255464
21.7146,0.255322
21.7812,0.256456
21.8478,0.255924
21.9144,0.256101
21.981,0.256916
22.0476,0.256137
22.1142,0.255924
22.1809,0.256172
22.2475,0.256243
22.3141,0.256633
22.3807,0.256385
22.4473,0.256349
22.5139,0.257129
22.5805,0.2572
22.6471,0.257731
22.7137,0.258475
22.7803,0.259006
22.8469,0.260529
22.9136,0.260104
22.9802,0.262194
23.0468,0.263469
23.1134,0.264957
23.18,0.264036
23.2466,0.26478
23.3132,0.264355
23.3798,0.264071
23.4464,0.263611
23.513,0.263717
23.5796,0.26393
23.6463,0.263788
23.7129,0.263965
23.7795,0.264213
23.8461,0.264284
23.9127,0.265099
23.9793,0.265276
24.0459,0.265595
24.1125,0.266161
24.1791,0.26602
24.2457,0.265417
24.3124,0.264957
24.379,0.264992
24.4456,0.264638
24.5122,0.264178
24.5788,0.265524
24.6454,0.264496
24.712,0.264213
24.7786,0.263257
24.8452,0.263363
24.9118,0.263044
24.9784,0.262513
25.0451,0.26315
25.1117,0.262442
25.1783,0.262265
25.2449,0.262548
25.3115,0.262796
25.3781,0.262832
25.4447,0.26315
25.5113,0.264071
25.5779,0.266303
25.6445,0.269066
25.7111,0.26981
25.7778,0.27027
25.8444,0.272927
25.911,0.274592
25.9776,0.275796
26.0442,0.278028
26.1108,0.278063
26.1774,0.278276
26.244,0.280366
26.3106,0.279834
26.3772,0.27948
26.4438,0.280153
26.5105,0.280897
26.5771,0.281109
26.6437,0.281995
26.7103,0.280932
26.7769,0.281499
26.8435,0.282845
26.9101,0.284049
26.9767,0.287202
27.0433,0.289894
27.1099,0.292126
27.1765,0.295774
27.2432,0.300344
27.3098,0.302717
27.3764,0.306259
27.443,0.312706
27.5096,0.314583
27.5762,0.319967
27.6428,0.324749
27.7094,0.327264
27.776,0.332436
27.8426,0.336262
27.9092,0.342885
27.9759,0.347101
28.0425,0.351706
28.1091,0.354433
28.1757,0.360278
28.2423,0.367327
28.3089,0.369983
28.3755,0.377032
28.4421,0.381248
28.5087,0.383267
28.5753,0.388899
28.6419,0.393149
28.7086,0.39655
28.7752,0.403032
28.8418,0.406291
28.9084,0.408381
28.975,0.41079
29.0416,0.413978
29.1082,0.413552
29.1748,0.418157
29.2414,0.422621
29.308,0.424392
29.3746,0.425348
29.4413,0.425454
29.5079,0.426517
29.5745,0.436825
29.6411,0.438986
29.7077,0.438915
29.7743,0.44189
29.8409,0.443165
29.9075,0.444015
29.9741,0.444936
30.0407,0.446708
30.1073,0.448691
30.174,0.450356
30.2406,0.451596
30.3072,0.451348
30.3738,0.452906
30.4404,0.455138
30.507,0.455563
30.5736,0.457724
30.6402,0.460699
30.7068,0.46116
30.7734,0.462647
30.8401,0.463639
30.9067,0.461726
30.9733,0.464525
31.0399,0.467288
31.1065,0.464879
31.1731,0.466721
31.2397,0.470688
31.3063,0.471468
31.3729,0.471326
31.4395,0.472105
31.5061,0.473239
31.5728,0.473132
31.6394,0.473487
31.706,0.471999
31.7726,0.472105
31.8392,0.47253
31.9058,0.472353
31.9724,0.47338
32.039,0.472814
32.1056,0.471078
32.1722,0.472211
32.2388,0.472282
32.3055,0.472672
32.3721,0.473983
32.4387,0.47338
32.5053,0.472743
32.5719,0.473805
32.6385,0.474549
32.7051,0.472955
32.7717,0.473628
32.8383,0.472672
32.9049,0.475116
32.9715,0.476108
33.0382,0.474514
33.1048,0.47586
33.1714,0.474195
33.238,0.476072
33.3046,0.47586
33.3712,0.480925
33.4378,0.487301
33.5044,0.49141
33.571,0.495413
33.6376,0.499805
33.7042,0.501399
33.7709,0.505189
33.8375,0.507067
33.9041,0.509369
33.9707,0.512982
34.0373,0.515462
34.1039,0.515745
34.1705,0.518827
34.2371,0.520067
34.3037,0.521448
34.3703,0.524778
34.4369,0.528851
34.5036,0.530126
34.5702,0.541143
34.6368,0.545535
34.7034,0.545748
34.77,0.549325
34.8366,0.554886
34.9032,0.555878
34.9698,0.5585
35.0364,0.558287
35.103,0.559137
35.1696,0.558677
35.2363,0.5602
35.3029,0.562254
35.3695,0.563352
35.4361,0.563388
35.5027,0.564592
35.5693,0.567213
35.6359,0.568878
35.7025,0.568276
35.7691,0.571216
35.8357,0.572066
35.9023,0.573518
35.969,0.574652
36.0356,0.578265
36.1022,0.577805
36.1688,0.579505
36.2354,0.582126
36.302,0.58287
36.3686,0.583507
36.4352,0.582941
36.5018,0.583366
36.5684,0.581028
36.635,0.580886
36.7017,0.581559
36.7683,0.583791
36.8349,0.581913
36.9015,0.580993
36.9681,0.579186
37.0347,0.579328
37.1013,0.578584
37.1679,0.57823
37.2345,0.580284
37.3011,0.57954
37.3678,0.578194
37.4344,0.577344
37.501,0.578761
37.5676,0.578407
37.6342,0.578903
37.7008,0.577379
37.7674,0.576211
37.834,0.574829
37.9006,0.569268
37.9672,0.569835
38.0338,0.571712
38.1005,0.572031
38.1671,0.574971
38.2337,0.576494
38.3003,0.578832
38.3669,0.580567
38.4335,0.582976
38.5001,0.583791
38.5667,0.587546
38.6333,0.59208
38.6999,0.594311
38.7665,0.598916
38.8332,0.601962
38.8998,0.603981
38.9664,0.608409
39.033,0.611491
39.0996,0.613545
39.1662,0.615812
39.2328,0.619213
39.2994,0.621197
39.366,0.62318
39.4326,0.629344
39.4992,0.6303
39.5659,0.641245
39.6325,0.646417
39.6991,0.649995
39.7657,0.653501
39.8323,0.658248
39.8989,0.660161
39.9655,0.663774
40.0321,0.667351
40.0987,0.6693
40.1653,0.671177
40.2319,0.674117
40.2986,0.676597
40.3652,0.683008
40.4318,0.688144
40.4984,0.689667
40.565,0.693918
40.6316,0.696716
40.6982,0.697885
40.7648,0.701534
40.8314,0.703057
40.898,0.703695
40.9646,0.703907
41.0313,0.705926
41.0979,0.70497
41.1645,0.704651
41.2311,0.723
41.2977,0.72222
41.3643,0.721476
41.4309,0.721547
41.4975,0.721441
41.5641,0.722079
41.6307,0.720378
41.6973,0.719882
41.764,0.720024
41.8306,0.72098
41.8972,0.722964
41.9638,0.725302
42.0304,0.729057
42.097,0.728632
42.1636,0.730261
42.2302,0.731147
42.2968,0.733839
42.3634,0.732705
42.43,0.73391
42.4967,0.733449
42.5633,0.734405
42.6299,0.734016
42.6965,0.734512
42.7631,0.735043
42.8297,0.733874
42.8963,0.75913
42.9629,0.758386
43.0295,0.759024
43.0961,0.75743
43.1627,0.757855
43.2294,0.758457
43.296,0.759059
43.3626,0.75913
43.4292,0.760193
43.4958,0.76161
43.5624,0.761999
43.629,0.762672
43.6956,0.761291
43.7622,0.761043
43.8288,0.762035
43.8954,0.76168
43.9621,0.761078
44.0287,0.760051
44.0953,0.761362
44.1619,0.761043
44.2285,0.761078
44.2951,0.759591
44.3617,0.758918
44.4283,0.759591
44.4949,0.760405
44.5615,0.756438
44.6282,0.755411
44.6948,0.754242
44.7614,0.754242
44.828,0.753604
44.8946,0.752896
44.9612,0.753356
45.0278,0.754809
45.0944,0.755127
45.161,0.757076
45.2276,0.756898
45.2942,0.757571
45.3609,0.75828
45.4275,0.756509
45.4941,0.756686
45.5607,0.755871
45.6273,0.756119
45.6939,0.75573
45.7605,0.755588
45.8271,0.755694
45.8937,0.758174
45.9603,0.757182
46.0269,0.756863
46.0936,0.756792
46.1602,0.75573
46.2268,0.768375
46.2934,0.768694
46.36,0.769154
46.4266,0.768234
46.4932,0.768694
46.5598,0.768446
46.6264,0.767844
46.693,0.768729
46.7596,0.767419
46.8263,0.768304
46.8929,0.767879
46.9595,0.771138
47.0261,0.773299
47.0927,0.773936
47.1593,0.774574
47.2259,0.775247
47.2925,0.781906
47.3591,0.782296
47.4257,0.782119
47.4923,0.783925
47.559,0.78134
47.6256,0.787361
47.6922,0.790904
47.7588,0.796146
47.8254,0.798838
47.892,0.834792
47.9586,0.834862
48.0252,0.835394
48.0918,0.834969
48.1584,0.835004
48.225,0.834331
48.2917,0.834827
48.3583,0.835429
48.4249,0.835571
48.4915,0.83589
48.5581,0.835358
48.6247,0.835783
48.6913,0.837236
48.7579,0.837696
48.8245,0.838086
48.8911,0.83883
48.9577,0.839786
49.0244,0.840424
49.091,0.839715
49.1576,0.840282
49.2242,0.842762
49.2908,0.842974
49.3574,0.843257
49.424,0.844958
49.4906,0.845595
49.5572,0.860543
49.6238,0.860968
49.6904,0.861146
49.7571,0.86235
49.8237,0.862314
49.8903,0.862562
49.9569,0.867663
50.0235,0.86784
50.0901,0.868761
50.1567,0.868832
50.2233,0.868301
50.2899,0.869045
50.3565,0.869009
50.4231,0.87071
50.4898,0.86993
50.5564,0.871241
50.623,0.8745
50.6896,0.874996
50.7562,0.880132
50.8228,0.880592
50.8894,0.882186
50.956,0.88208
51.0226,0.883391
51.0892,0.883355
51.1559,0.883426
51.2225,0.892034
51.2891,0.892671
51.3557,0.893025
51.4223,0.893167
51.4889,0.8926
51.5555,0.891998
51.6221,0.892423
51.6887,0.892317
51.7553,0.891715
51.8219,0.89175
51.8886,0.892034
51.9552,0.891325
52.0218,0.891113
52.0884,0.890546
52.155,0.891006
52.2216,0.890475
52.2882,0.889908
52.3548,0.88966
52.4214,0.889342
52.488,0.8892
52.5546,0.888491
52.6213,0.88835
52.6879,0.887322
52.7545,0.886366
52.8211,0.885658
52.8877,0.87705
52.9543,0.876519
53.0209,0.877263
53.0875,0.876979
53.1541,0.877085
53.2207,0.876838
53.2873,0.875739
53.354,0.875137
53.4206,0.87496
53.4872,0.874571
53.5538,0.872941
53.6204,0.870922
53.687,0.871347
53.7536,0.872056
53.8202,0.872197
53.8868,0.872162
53.9534,0.872445
54.02,0.875881
54.0867,0.878644
54.1533,0.886472
54.2199,0.887889
54.2865,0.888598
54.3531,0.88966
54.4197,0.89051
54.4863,0.890723
54.5529,0.897807
54.6195,0.898693
54.6861,0.898091
54.7527,0.898622
54.8194,0.899331
54.886,0.900145
54.9526,0.902731
55.0192,0.902766
55.0858,0.902519
55.1524,0.902731
55.219,0.902589
55.2856,0.902235
55.3522,0.902766
55.4188,0.904006
55.4854,0.904042
55.5521,0.903865
55.6187,0.904077
55.6853,0.903794
55.7519,0.904573
55.8185,0.904219
55.8851,0.904679
55.9517,0.904644
56.0183,0.904644
56.0849,0.904431
56.1515,0.904502
56.2181,0.905423
56.2848,0.905636
56.3514,0.905529
56.418,0.905529
56.4846,0.905317
56.5512,0.904786
56.6178,0.904254
56.6844,0.904644
56.751,0.904927
56.8176,0.904502
56.8842,0.904644
56.9508,0.904431
57.0175,0.903546
57.0841,0.904006
57.1507,0.903829
57.2173,0.903829
57.2839,0.903475
57.3505,0.903192
57.4171,0.90305
57.4837,0.903439
57.5503,0.904148
57.6169,0.904219
57.6836,0.904042
57.7502,0.903475
57.8168,0.903865
57.8834,0.903369
57.95,0.901987
58.0166,0.901633
58.0832,0.901952
58.1498,0.901527
58.2164,0.901739
58.283,0.902625
58.3496,0.903369
58.4163,0.90351
58.4829,0.904325
58.5495,0.9022
58.6161,0.902625
58.6827,0.902696
58.7493,0.902625
58.8159,0.9022
58.8825,0.902129
58.9491,0.901916
59.0157,0.902696
59.0823,0.902554
59.149,0.903121
59.2156,0.903227
59.2822,0.902873
59.3488,0.902908
59.4154,0.903687
59.482,0.903935
59.5486,0.903581
59.6152,0.903192
59.6818,0.90266
59.7484,0.902837
59.815,0.903475
59.8817,0.903758
59.9483,0.903723
60.0149,0.904148
60.0815,0.904219
60.1481,0.903971
60.2147,0.904502
60.2813,0.903794
60.3479,0.904927
60.4145,0.904042
60.4811,0.904183
60.5477,0.904254
60.6144,0.904325
60.681,0.903829
60.7476,0.903758
60.8142,0.903404
60.8808,0.904219
60.9474,0.904892
61.014,0.904786
61.0806,0.904786
61.1472,0.904431
61.2138,0.904573
61.2804,0.904786
61.3471,0.904892
61.4137,0.905175
61.4803,0.90475
61.5469,0.904467
61.6135,0.903971
61.6801,0.904715
61.7467,0.904608
61.8133,0.904856
61.8799,0.904006
61.9465,0.903829
62.0131,0.903829
62.0798,0.903758
62.1464,0.904254
62.213,0.904431
62.2796,0.904502
62.3462,0.904219
62.4128,0.904998
62.4794,0.904892
62.546,0.905317
62.6126,0.904963
62.6792,0.904538
62.7458,0.90351
62.8125,0.903758
62.8791,0.903794
62.9457,0.903475
63.0123,0.903546
63.0789,0.903546
63.1455,0.903794
63.2121,0.903404
63.2787,0.903581
63.3453,0.903439
63.4119,0.903652
63.4785,0.903617
63.5452,0.902979
63.6118,0.903121
63.6784,0.90351
63.745,0.903085
63.8116,0.903475
63.8782,0.902837
63.9448,0.902625
64.0114,0.902766
64.078,0.90305
64.1446,0.902944
64.2112,0.903192
64.2779,0.903121
64.3445,0.903298
64.4111,0.903652
64.4777,0.903723
64.5443,0.903475
64.6109,0.903794
64.6775,0.903475
64.7441,0.902625
64.8107,0.903192
64.8773,0.903121
64.944,0.902235
65.0106,0.901845
65.0772,0.901916
65.1438,0.902731
65.2104,0.90057
65.277,0.900641
65.3436,0.900818
65.4102,0.900677
65.4768,0.90142
65.5434,0.902058
65.61,0.902589
65.6767,0.902483
65.7433,0.902873
65.8099,0.903581
65.8765,0.903546
65.9431,0.903581
66.0097,0.903581
66.0763,0.903617
66.1429,0.9039
66.2095,0.903439
66.2761,0.903652
66.3427,0.903546
66.4094,0.903617
66.476,0.904113
66.5426,0.90429
66.6092,0.905919
66.6758,0.905317
66.7424,0.905388
66.809,0.904892
66.8756,0.904644
66.9422,0.904325
67.0088,0.904325
67.0754,0.904538
67.1421,0.903617
67.2087,0.90351
67.2753,0.902696
67.3419,0.902377
67.4085,0.9022
67.4751,0.901952
67.5417,0.901916
67.6083,0.902058
67.6749,0.901881
67.7415,0.902377
67.8081,0.903121
67.8748,0.902908
67.9414,0.902696
68.008,0.90266
68.0746,0.901881
68.1412,0.901456
68.2078,0.901031
68.2744,0.901314
68.341,0.902093
68.4076,0.901881
68.4742,0.902235
68.5408,0.901987
68.6075,0.901562
68.6741,0.901739
68.7407,0.902129
68.8073,0.901952
68.8739,0.90135
68.9405,0.899968
69.0071,0.899614
69.0737,0.899968
69.1403,0.899472
69.2069,0.899578
69.2735,0.899685
69.3402,0.899649
69.4068,0.899153
69.4734,0.900499
69.54,0.901208
69.6066,0.900854
69.6732,0.900854
69.7398,0.901491
69.8064,0.901598
69.873,0.901633
69.9396,0.901668
70.0062,0.901845
70.0729,0.902093
70.1395,0.901704
70.2061,0.900712
70.2727,0.900818
70.3393,0.900854
70.4059,0.900712
70.4725,0.90096
70.5391,0.90135
70.6057,0.902979
70.6723,0.902164
70.7389,0.901739
70.8056,0.902448
70.8722,0.90096
70.9388,0.901562
71.0054,0.901385
71.072,0.901987
71.1386,0.902519
71.2052,0.902129
71.2718,0.901881
71.3384,0.901562
71.405,0.900854
71.4717,0.901137
71.5383,0.901845
71.6049,0.901775
71.6715,0.901916
71.7381,0.902235
71.8047,0.902093
71.8713,0.901562
71.9379,0.902023
72.0045,0.901527
72.0711,0.901916
72.1377,0.901987
72.2044,0.90181
72.271,0.902412
72.3376,0.901704
72.4042,0.902129
72.4708,0.902589
72.5374,0.902164
72.604,0.903121
72.6706,0.903085
72.7372,0.903192
72.8038,0.902908
72.8704,0.903156
72.9371,0.903581
73.0037,0.902908
73.0703,0.902731
73.1369,0.901952
73.2035,0.902093
73.2701,0.901775
73.3367,0.902093
73.4033,0.902837
73.4699,0.902625
73.5365,0.90305
73.6031,0.902802
73.6698,0.903475
73.7364,0.90305
73.803,0.903227
73.8696,0.903014
73.9362,0.901456
74.0028,0.901102
74.0694,0.900606
74.136,0.901137
74.2026,0.90135
74.2692,0.900535
74.3358,0.899933
74.4025,0.899543
74.4691,0.899649
74.5357,0.899897
74.6023,0.899756
74.6689,0.900641
74.7355,0.901102
74.8021,0.90142
74.8687,0.901739
74.9353,0.901739
75.0019,0.901102
75.0685,0.901314
75.1352,0.901527
75.2018,0.901208
75.2684,0.901881
75.335,0.901987
75.4016,0.901704
75.4682,0.901491
75.5348,0.901668
75.6014,0.900641
75.668,0.90057
75.7346,0.899189
75.8012,0.898587
75.8679,0.897843
75.9345,0.897134
76.0011,0.897382
76.0677,0.897064
76.1343,0.897453
76.2009,0.897028
76.2675,0.898941
76.3341,0.895753
76.4007,0.897276
76.4673,0.899331
76.5339,0.899508
76.6006,0.899933
76.6672,0.89972
76.7338,0.900358
76.8004,0.900393
76.867,0.899472
76.9336,0.89887
77.0002,0.898268
77.0668,0.89972
77.1334,0.900181
77.2,0.899437
77.2666,0.899331
77.3333,0.898587
77.3999,0.898551
77.4665,0.898091
77.5331,0.898232
77.5997,0.899118
77.6663,0.899791
77.7329,0.900535
77.7995,0.900074
77.8661,0.899968
77.9327,0.900181
77.9994,0.900889
78.066,0.900712
78.1326,0.900712
78.1992,0.900535
78.2658,0.901102
78.3324,0.901491
78.399,0.901102
78.4656,0.900925
78.5322,0.901208
78.5988,0.901137
78.6654,0.901208
78.7321,0.901385
78.7987,0.902023
78.8653,0.902164
78.9319,0.9022
78.9985,0.901881
79.0651,0.901668
79.1317,0.901916
79.1983,0.902306
