time (in seconds),queue density
0.0666092,0.033346
0.133218,0.0449777
0.199828,0.0628973
0.266437,0.0761546
0.333046,0.0823523
0.399655,0.0923536
0.466264,0.101574
0.532873,0.106047
0.599483,0.112445
0.666092,0.117034
0.732701,0.119653
0.79931,0.123452
0.865919,0.127549
0.932529,0.128478
0.999138,0.131967
1.06575,0.134246
1.13236,0.13529
1.19897,0.137703
1.26557,0.140681
1.33218,0.141224
1.39879,0.142749
1.4654,0.144499
1.53201,0.145234
1.59862,0.147853
1.66523,0.150171
1.73184,0.151316
1.79845,0.153909
1.86506,0.157383
1.93167,0.158033
1.99828,0.158618
2.06488,0.159553
2.13149,0.159813
2.1981,0.160206
2.26471,0.160476
2.33132,0.161232
2.39793,0.161071
2.46454,0.161722
2.53115,0.162113
2.59776,0.162344
2.66437,0.162752
2.73098,0.163245
2.79759,0.163217
2.86419,0.163082
2.9308,0.163979
2.99741,0.163677
3.06402,0.163606
3.13063,0.164003
3.19724,0.164916
3.26385,0.165444
3.33046,0.165932
3.39707,0.166411
3.46368,0.167975
3.53029,0.168893
3.5969,0.17073
3.6635,0.172392
3.73011,0.173025
3.79672,0.173937
3.86333,0.174632
3.92994,0.174851
3.99655,0.175485
4.06316,0.175582
4.12977,0.174851
4.19638,0.173507
4.26299,0.172229
4.3296,0.172119
4.39621,0.171496
4.46282,0.170625
4.52942,0.170541
4.59603,0.172586
4.66264,0.173868
4.72925,0.174614
4.79586,0.176301
4.86247,0.177453
4.92908,0.17835
4.99569,0.179513
5.0623,0.180549
5.12891,0.181628
5.19552,0.184592
5.26213,0.187898
5.32873,0.189842
5.39534,0.19153
5.46195,0.194028
5.52856,0.195848
5.59517,0.200234
5.66178,0.20569
5.72839,0.208033
5.795,0.21418
5.86161,0.220093
5.92822,0.223118
5.99483,0.229741
6.06144,0.23585
6.12804,0.238215
6.19465,0.241231
6.26126,0.245017
6.32787,0.246349
6.39448,0.249447
6.46109,0.2522
6.5277,0.253823
6.59431,0.256533
6.66092,0.257259
6.72753,0.257169
6.79414,0.256141
6.86075,0.254642
6.92735,0.253368
6.99396,0.250916
7.06057,0.250028
7.12718,0.249092
7.19379,0.248616
7.2604,0.249732
7.32701,0.251209
7.39362,0.253757
7.46023,0.256065
7.52684,0.258068
7.59345,0.262077
7.66006,0.265294
7.72666,0.266519
7.79327,0.268874
7.85988,0.270123
7.92649,0.269359
7.9931,0.270025
8.05971,0.270035
8.12632,0.270534
8.19293,0.271284
8.25954,0.27174
8.32615,0.272213
8.39276,0.273526
8.45937,0.276281
8.52598,0.278081
8.59258,0.280925
8.65919,0.287488
8.7258,0.288623
8.79241,0.291033
8.85902,0.292586
8.92563,0.293495
8.99224,0.295444
9.05885,0.297636
9.12546,0.298854
9.19207,0.299605
9.25868,0.3012
9.32529,0.301522
9.39189,0.300371
9.4585,0.2997
9.52511,0.298386
9.59172,0.296476
9.65833,0.295885
9.72494,0.295881
9.79155,0.29438
9.85816,0.293507
9.92477,0.292693
9.99138,0.290883
10.058,0.289744
10.1246,0.289883
10.1912,0.288946
10.2578,0.287933
10.3244,0.286592
10.391,0.285099
10.4576,0.283642
10.5243,0.282772
10.5909,0.281125
10.6575,0.280637
10.7241,0.279922
10.7907,0.278505
10.8573,0.276528
10.9239,0.276409
10.9905,0.275809
11.0571,0.275703
11.1237,0.275631
11.1903,0.275373
11.257,0.275274
11.3236,0.275171
11.3902,0.273618
11.4568,0.272475
11.5234,0.271939
11.59,0.272388
11.6566,0.271634
11.7232,0.271495
11.7898,0.270685
11.8564,0.270502
11.923,0.270316
11.9897,0.270181
12.0563,0.269351
12.1229,0.269037
12.1895,0.268648
12.2561,0.267874
12.3227,0.267426
12.3893,0.265703
12.4559,0.265274
12.5225,0.265778
12.5891,0.265572
12.6557,0.264984
12.7224,0.264567
12.789,0.263738
12.8556,0.263511
12.9222,0.260745
12.9888,0.26076
13.0554,0.26086
13.122,0.260566
13.1886,0.260272
13.2552,0.260467
13.3218,0.260439
13.3884,0.260284
13.4551,0.260161
13.5217,0.26032
13.5883,0.260729
13.6549,0.260177
13.7215,0.259752
13.7881,0.259236
13.8547,0.259454
13.9213,0.259542
13.9879,0.25999
14.0545,0.260014
14.1211,0.259839
14.1878,0.25924
14.2544,0.259288
14.321,0.2592
14.3876,0.259014
14.4542,0.258938
14.5208,0.259089
14.5874,0.259252
14.654,0.259379
14.7206,0.259466
14.7872,0.259379
14.8538,0.259276
14.9205,0.258914
14.9871,0.258918
15.0537,0.258744
15.1203,0.258974
15.1869,0.258676
15.2535,0.258156
15.3201,0.258549
15.3867,0.258529
15.4533,0.259065
15.5199,0.258827
15.5865,0.258815
15.6532,0.259014
15.7198,0.258887
15.7864,0.25849
15.853,0.257422
15.9196,0.256152
15.9862,0.257247
16.0528,0.259097
16.1194,0.259128
16.186,0.259926
16.2526,0.259511
16.3192,0.259356
16.3859,0.259412
16.4525,0.259007
16.5191,0.25884
16.5857,0.25892
16.6523,0.25878
16.7189,0.258721
16.7855,0.258097
16.8521,0.258105
16.9187,0.257811
16.9853,0.258081
17.052,0.258097
17.1186,0.257807
17.1852,0.258701
17.2518,0.258629
17.3184,0.25814
17.385,0.257823
17.4516,0.258498
17.5182,0.258736
17.5848,0.25882
17.6514,0.258911
17.718,0.258931
17.7847,0.258665
17.8513,0.258645
17.9179,0.258494
17.9845,0.258625
18.0511,0.2582
18.1177,0.257759
18.1843,0.2576
18.2509,0.258256
18.3175,0.258137
18.3841,0.258577
18.4507,0.259085
18.5174,0.259181
18.584,0.260057
18.6506,0.26156
18.7172,0.262566
18.7838,0.264599
18.8504,0.266956
18.917,0.267032
18.9836,0.268971
19.0502,0.269888
19.1168,0.270054
19.1834,0.269439
19.2501,0.267809
19.3167,0.26689
19.3833,0.265968
19.4499,0.26468
19.5165,0.264208
19.5831,0.263063
19.6497,0.26198
19.7163,0.26147
19.7829,0.259966
19.8495,0.258207
19.9161,0.257566
19.9828,0.256289
20.0494,0.255346
20.116,0.254686
20.1826,0.254858
20.2492,0.254919
20.3158,0.255259
20.3824,0.255443
20.449,0.255842
20.5156,0.255721
20.5822,0.255915
20.6488,0.257578
20.7155,0.25727
20.7821,0.256837
20.8487,0.257777
20.9153,0.25739
20.9819,0.25824
21.0485,0.258101
21.1151,0.257993
21.1817,0.257366
21.2483,0.25976
21.3149,0.259387
21.3815,0.258823
21.4482,0.258617
21.5148,0.258625
21.5814,0.258839
21.648,0.259395
21.7146,0.259335
21.7812,0.25974
21.8478,0.259816
21.9144,0.259839
21.981,0.259966
22.0476,0.259419
22.1142,0.259359
22.1809,0.259887
22.2475,0.260109
22.3141,0.260383
22.3807,0.260308
22.4473,0.260359
22.5139,0.260677
22.5805,0.260983
22.6471,0.261542
22.7137,0.262355
22.7803,0.26283
22.8469,0.264209
22.9136,0.263174
22.9802,0.264469
23.0468,0.265722
23.1134,0.266403
23.18,0.267028
23.2466,0.266979
23.3132,0.266918
23.3798,0.266923
23.4464,0.266411
23.513,0.266495
23.5796,0.26648
23.6463,0.266835
23.7129,0.267196
23.7795,0.267507
23.8461,0.267684
23.9127,0.267835
23.9793,0.267998
24.0459,0.268192
24.1125,0.268383
24.1791,0.268446
24.2457,0.268117
24.3124,0.267978
24.379,0.267903
24.4456,0.267327
24.5122,0.267303
24.5788,0.267604
24.6454,0.267172
24.712,0.267291
24.7786,0.266735
24.8452,0.266703
24.9118,0.266659
24.9784,0.265977
25.0451,0.266278
25.1117,0.26606
25.1783,0.265627
25.2449,0.265766
25.3115,0.266056
25.3781,0.266372
25.4447,0.267241
25.5113,0.26802
25.5779,0.270595
25.6445,0.272413
25.7111,0.27288
25.7778,0.274256
25.8444,0.276268
25.911,0.277484
25.9776,0.278994
26.0442,0.280711
26.1108,0.280631
26.1774,0.281284
26.244,0.28197
26.3106,0.283054
26.3772,0.283816
26.4438,0.284548
26.5105,0.284805
26.5771,0.28549
26.6437,0.286313
26.7103,0.286344
26.7769,0.287064
26.8435,0.288252
26.9101,0.289265
26.9767,0.291672
27.0433,0.294641
27.1099,0.295868
27.1765,0.299435
27.2432,0.303055
27.3098,0.305527
27.3764,0.309477
27.443,0.314952
27.5096,0.317817
27.5762,0.323487
27.6428,0.328306
27.7094,0.330786
27.776,0.335543
27.8426,0.339818
27.9092,0.344475
27.9759,0.34819
28.0425,0.353335
28.1091,0.356164
28.1757,0.361994
28.2423,0.368686
28.3089,0.371427
28.3755,0.37758
28.4421,0.382904
28.5087,0.384675
28.5753,0.390964
28.6419,0.39656
28.7086,0.398962
28.7752,0.405524
28.8418,0.410427
28.9084,0.413371
28.975,0.417279
29.0416,0.420359
29.1082,0.421118
29.1748,0.424609
29.2414,0.428488
29.308,0.428219
29.3746,0.430695
29.4413,0.432195
29.5079,0.433072
29.5745,0.440347
29.6411,0.441248
29.7077,0.442757
29.7743,0.445097
29.8409,0.447674
29.9075,0.447898
29.9741,0.449878
30.0407,0.45177
30.1073,0.452616
30.174,0.454994
30.2406,0.456626
30.3072,0.456715
30.3738,0.458148
30.4404,0.460937
30.507,0.461299
30.5736,0.462969
30.6402,0.465521
30.7068,0.465851
30.7734,0.467939
30.8401,0.469232
30.9067,0.469689
30.9733,0.470673
31.0399,0.472551
31.1065,0.472518
31.1731,0.473041
31.2397,0.478618
31.3063,0.477521
31.3729,0.478598
31.4395,0.478582
31.5061,0.478579
31.5728,0.479554
31.6394,0.478737
31.706,0.4786
31.7726,0.479433
31.8392,0.479727
31.9058,0.479877
31.9724,0.480289
32.039,0.479946
32.1056,0.479563
32.1722,0.480775
32.2388,0.481211
32.3055,0.481354
32.3721,0.481404
32.4387,0.481607
32.5053,0.481581
32.5719,0.481398
32.6385,0.482043
32.7051,0.482059
32.7717,0.481773
32.8383,0.481735
32.9049,0.481856
32.9715,0.482971
33.0382,0.483125
33.1048,0.482943
33.1714,0.483024
33.238,0.485354
33.3046,0.486873
33.3712,0.491319
33.4378,0.496757
33.5044,0.499607
33.571,0.503908
33.6376,0.507361
33.7042,0.509401
33.7709,0.513116
33.8375,0.516466
33.9041,0.518308
33.9707,0.521581
34.0373,0.523916
34.1039,0.524889
34.1705,0.527173
34.2371,0.528875
34.3037,0.530116
34.3703,0.531495
34.4369,0.535846
34.5036,0.537303
34.5702,0.54822
34.6368,0.551288
34.7034,0.551985
34.77,0.555846
34.8366,0.560926
34.9032,0.562733
34.9698,0.566446
35.0364,0.56649
35.103,0.567215
35.1696,0.567107
35.2363,0.569108
35.3029,0.569749
35.3695,0.570897
35.4361,0.571436
35.5027,0.572865
35.5693,0.575953
35.6359,0.576784
35.7025,0.577197
35.7691,0.579309
35.8357,0.581353
35.9023,0.582421
35.969,0.582988
36.0356,0.585535
36.1022,0.586239
36.1688,0.58762
36.2354,0.589527
36.302,0.589851
36.3686,0.59003
36.4352,0.590605
36.5018,0.590178
36.5684,0.589062
36.635,0.588531
36.7017,0.588546
36.7683,0.588241
36.8349,0.587616
36.9015,0.588071
36.9681,0.587715
37.0347,0.587216
37.1013,0.587351
37.1679,0.587242
37.2345,0.587698
37.3011,0.586471
37.3678,0.586002
37.4344,0.586225
37.501,0.585695
37.5676,0.584878
37.6342,0.584012
37.7008,0.584024
37.7674,0.584019
37.834,0.582827
37.9006,0.57773
37.9672,0.57871
38.0338,0.579798
38.1005,0.580242
38.1671,0.581525
38.2337,0.583334
38.3003,0.585022
38.3669,0.58624
38.4335,0.588441
38.5001,0.589543
38.5667,0.592577
38.6333,0.595726
38.6999,0.597307
38.7665,0.601052
38.8332,0.604297
38.8998,0.606556
38.9664,0.609735
39.033,0.612664
39.0996,0.61437
39.1662,0.617517
39.2328,0.620384
39.2994,0.62159
39.366,0.624886
39.4326,0.6304
39.4992,0.630995
39.5659,0.642498
39.6325,0.647842
39.6991,0.651042
39.7657,0.654623
39.8323,0.658274
39.8989,0.660197
39.9655,0.663711
40.0321,0.666456
40.0987,0.667481
40.1653,0.670543
40.2319,0.67397
40.2986,0.675611
40.3652,0.682001
40.4318,0.686348
40.4984,0.688648
40.565,0.692243
40.6316,0.695925
40.6982,0.697195
40.7648,0.699658
40.8314,0.702395
40.898,0.703286
40.9646,0.703362
41.0313,0.704397
41.0979,0.704573
41.1645,0.704808
41.2311,0.721953
41.2977,0.721744
41.3643,0.721708
41.4309,0.721501
41.4975,0.720831
41.5641,0.72125
41.6307,0.721154
41.6973,0.720942
41.764,0.721134
41.8306,0.722239
41.8972,0.723981
41.9638,0.726199
42.0304,0.728461
42.097,0.728588
42.1636,0.72966
42.2302,0.730956
42.2968,0.73322
42.3634,0.733563
42.43,0.734394
42.4967,0.735355
42.5633,0.735697
42.6299,0.735521
42.6965,0.735291
42.7631,0.73502
42.8297,0.735294
42.8963,0.759831
42.9629,0.759559
43.0295,0.759393
43.0961,0.759531
43.1627,0.759796
43.2294,0.759881
43.296,0.760053
43.3626,0.760158
43.4292,0.760622
43.4958,0.762757
43.5624,0.762977
43.629,0.763282
43.6956,0.763094
43.7622,0.762867
43.8288,0.762943
43.8954,0.762929
43.9621,0.762869
44.0287,0.762332
44.0953,0.762894
44.1619,0.762746
44.2285,0.762695
44.2951,0.762337
44.3617,0.762362
44.4283,0.761802
44.4949,0.761582
44.5615,0.756094
44.6282,0.756215
44.6948,0.755759
44.7614,0.755575
44.828,0.754998
44.8946,0.75515
44.9612,0.755974
45.0278,0.756084
45.0944,0.757549
45.161,0.758758
45.2276,0.758618
45.2942,0.759757
45.3609,0.759557
45.4275,0.759085
45.4941,0.7598
45.5607,0.758981
45.6273,0.75848
45.6939,0.758617
45.7605,0.758967
45.8271,0.759322
45.8937,0.759555
45.9603,0.758639
46.0269,0.758648
46.0936,0.758455
46.1602,0.758752
46.2268,0.768654
46.2934,0.768533
46.36,0.768558
46.4266,0.76787
46.4932,0.767737
46.5598,0.76853
46.6264,0.768101
46.693,0.768251
46.7596,0.768458
46.8263,0.769185
46.8929,0.768467
46.9595,0.770242
47.0261,0.771697
47.0927,0.771976
47.1593,0.772463
47.2259,0.775549
47.2925,0.780582
47.3591,0.781554
47.4257,0.782124
47.4923,0.783104
47.559,0.782563
47.6256,0.788028
47.6922,0.790917
47.7588,0.795934
47.8254,0.79882
47.892,0.838401
47.9586,0.838171
48.0252,0.838351
48.0918,0.837761
48.1584,0.838035
48.225,0.837403
48.2917,0.838648
48.3583,0.838479
48.4249,0.83902
48.4915,0.839144
48.5581,0.838935
48.6247,0.839277
48.6913,0.839859
48.7579,0.839698
48.8245,0.839704
48.8911,0.840919
48.9577,0.842292
49.0244,0.842605
49.091,0.842704
49.1576,0.842279
49.2242,0.844962
49.2908,0.845412
49.3574,0.845665
49.424,0.846768
49.4906,0.846994
49.5572,0.86116
49.6238,0.861964
49.6904,0.861415
49.7571,0.862821
49.8237,0.863692
49.8903,0.864834
49.9569,0.870656
50.0235,0.872205
50.0901,0.872939
50.1567,0.872705
50.2233,0.873551
50.2899,0.874498
50.3565,0.874354
50.4231,0.876254
50.4898,0.875538
50.5564,0.876967
50.623,0.880183
50.6896,0.881296
50.7562,0.887287
50.8228,0.887528
50.8894,0.887818
50.956,0.888176
51.0226,0.889314
51.0892,0.889456
51.1559,0.889011
51.2225,0.895765
51.2891,0.89652
51.3557,0.896317
51.4223,0.896497
51.4889,0.896391
51.5555,0.896276
51.6221,0.895987
51.6887,0.895886
51.7553,0.895162
51.8219,0.89497
51.8886,0.894551
51.9552,0.893796
52.0218,0.893953
52.0884,0.893808
52.155,0.893395
52.2216,0.893063
52.2882,0.892999
52.3548,0.892882
52.4214,0.892721
52.488,0.892569
52.5546,0.892119
52.6213,0.891621
52.6879,0.891375
52.7545,0.890738
52.8211,0.889524
52.8877,0.882752
52.9543,0.882563
53.0209,0.882463
53.0875,0.882434
53.1541,0.881991
53.2207,0.881725
53.2873,0.881706
53.354,0.880746
53.4206,0.878009
53.4872,0.877633
53.5538,0.876621
53.6204,0.875681
53.687,0.875228
53.7536,0.874067
53.8202,0.874459
53.8868,0.874184
53.9534,0.875844
54.02,0.87863
54.0867,0.882154
54.1533,0.891144
54.2199,0.891855
54.2865,0.892756
54.3531,0.893747
54.4197,0.894605
54.4863,0.894519
54.5529,0.900109
54.6195,0.899869
54.6861,0.900131
54.7527,0.902487
54.8194,0.903592
54.886,0.90373
54.9526,0.906029
55.0192,0.905908
55.0858,0.905629
55.1524,0.905757
55.219,0.906198
55.2856,0.906447
55.3522,0.906832
55.4188,0.909065
55.4854,0.908811
55.5521,0.908742
55.6187,0.908589
55.6853,0.908512
55.7519,0.908579
55.8185,0.908578
55.8851,0.908678
55.9517,0.908781
56.0183,0.90888
56.0849,0.90859
56.1515,0.908906
56.2181,0.91019
56.2848,0.909865
56.3514,0.910361
56.418,0.910059
56.4846,0.910174
56.5512,0.910038
56.6178,0.910126
56.6844,0.910113
56.751,0.909992
56.8176,0.909833
56.8842,0.9098
56.9508,0.909523
57.0175,0.909416
57.0841,0.909334
57.1507,0.909134
57.2173,0.909171
57.2839,0.909429
57.3505,0.909094
57.4171,0.909181
57.4837,0.909147
57.5503,0.909188
57.6169,0.909435
57.6836,0.909354
57.7502,0.909333
57.8168,0.909314
57.8834,0.907943
57.95,0.907713
58.0166,0.90776
58.0832,0.907635
58.1498,0.907699
58.2164,0.908332
58.283,0.908306
58.3496,0.908242
58.4163,0.908483
58.4829,0.909544
58.5495,0.910319
58.6161,0.91023
58.6827,0.910223
58.7493,0.909971
58.8159,0.910051
58.8825,0.910031
58.9491,0.90967
59.0157,0.909804
59.0823,0.909611
59.149,0.909666
59.2156,0.909616
59.2822,0.909584
59.3488,0.909525
59.4154,0.909319
59.482,0.909455
59.5486,0.909565
59.6152,0.909642
59.6818,0.909336
59.7484,0.909158
59.815,0.908939
59.8817,0.909146
59.9483,0.909151
60.0149,0.90922
60.0815,0.909283
60.1481,0.909376
60.2147,0.909472
60.2813,0.909413
60.3479,0.909531
60.4145,0.909318
60.4811,0.909312
60.5477,0.90949
60.6144,0.909657
60.681,0.909407
60.7476,0.909697
60.8142,0.909748
60.8808,0.909851
60.9474,0.909932
61.014,0.909896
61.0806,0.909705
61.1472,0.909757
61.2138,0.909783
61.2804,0.91005
61.3471,0.909799
61.4137,0.909956
61.4803,0.909988
61.5469,0.910039
61.6135,0.909947
61.6801,0.909882
61.7467,0.909739
61.8133,0.909767
61.8799,0.908736
61.9465,0.908785
62.0131,0.908498
62.0798,0.909065
62.1464,0.908953
62.213,0.909294
62.2796,0.90943
62.3462,0.909327
62.4128,0.90919
62.4794,0.909348
62.546,0.909634
62.6126,0.909377
62.6792,0.909355
62.7458,0.908892
62.8125,0.908948
62.8791,0.908785
62.9457,0.908546
63.0123,0.908781
63.0789,0.908872
63.1455,0.908984
63.2121,0.908917
63.2787,0.908406
63.3453,0.908364
63.4119,0.908315
63.4785,0.908268
63.5452,0.90857
63.6118,0.908393
63.6784,0.908541
63.745,0.908396
63.8116,0.908325
63.8782,0.908207
63.9448,0.908029
64.0114,0.908078
64.078,0.90787
64.1446,0.908051
64.2112,0.908161
64.2779,0.908374
64.3445,0.908447
64.4111,0.908441
64.4777,0.908766
64.5443,0.908439
64.6109,0.908169
64.6775,0.908035
64.7441,0.907937
64.8107,0.90801
64.8773,0.907795
64.944,0.907496
65.0106,0.907194
65.0772,0.907486
65.1438,0.907163
65.2104,0.908041
65.277,0.907774
65.3436,0.907943
65.4102,0.907786
65.4768,0.907817
65.5434,0.90807
65.61,0.908403
65.6767,0.908317
65.7433,0.908403
65.8099,0.908938
65.8765,0.908547
65.9431,0.908769
66.0097,0.908742
66.0763,0.908667
66.1429,0.90881
66.2095,0.908683
66.2761,0.908533
66.3427,0.90852
66.4094,0.908697
66.476,0.908905
66.5426,0.909117
66.6092,0.909476
66.6758,0.90933
66.7424,0.909436
66.809,0.909258
66.8756,0.909595
66.9422,0.909128
67.0088,0.90888
67.0754,0.908984
67.1421,0.908996
67.2087,0.908707
67.2753,0.907759
67.3419,0.907857
67.4085,0.907462
67.4751,0.907264
67.5417,0.90716
67.6083,0.907265
67.6749,0.906934
67.7415,0.907275
67.8081,0.907397
67.8748,0.907342
67.9414,0.907341
68.008,0.907161
68.0746,0.906868
68.1412,0.907047
68.2078,0.906885
68.2744,0.906745
68.341,0.90682
68.4076,0.906838
68.4742,0.906822
68.5408,0.906457
68.6075,0.906535
68.6741,0.906778
68.7407,0.906636
68.8073,0.906695
68.8739,0.906536
68.9405,0.905934
69.0071,0.905712
69.0737,0.905678
69.1403,0.905556
69.2069,0.905475
69.2735,0.905769
69.3402,0.905534
69.4068,0.905481
69.4734,0.905311
69.54,0.905476
69.6066,0.905509
69.6732,0.905404
69.7398,0.905464
69.8064,0.905393
69.873,0.905731
69.9396,0.905877
70.0062,0.905959
70.0729,0.90582
70.1395,0.905941
70.2061,0.905842
70.2727,0.905677
70.3393,0.9057
70.4059,0.90564
70.4725,0.90593
70.5391,0.906211
70.6057,0.908737
70.6723,0.908169
70.7389,0.907946
70.8056,0.907897
70.8722,0.907285
70.9388,0.90735
71.0054,0.907552
71.072,0.907536
71.1386,0.907739
71.2052,0.907535
71.2718,0.907642
71.3384,0.908055
71.405,0.90743
71.4717,0.907478
71.5383,0.90789
71.6049,0.90784
71.6715,0.907434
71.7381,0.907313
71.8047,0.907426
71.8713,0.907379
71.9379,0.907357
72.0045,0.907262
72.0711,0.907368
72.1377,0.90759
72.2044,0.907465
72.271,0.910303
72.3376,0.909925
72.4042,0.909554
72.4708,0.909503
72.5374,0.909675
72.604,0.909629
72.6706,0.909819
72.7372,0.909723
72.8038,0.909577
72.8704,0.909523
72.9371,0.909415
73.0037,0.909349
73.0703,0.90899
73.1369,0.909204
73.2035,0.909262
73.2701,0.908717
73.3367,0.908711
73.4033,0.90856
73.4699,0.908637
73.5365,0.908744
73.6031,0.908869
73.6698,0.908827
73.7364,0.908801
73.803,0.908938
73.8696,0.908975
73.9362,0.907706
74.0028,0.907812
74.0694,0.907808
74.136,0.907999
74.2026,0.907971
74.2692,0.907743
74.3358,0.90774
74.4025,0.907687
74.4691,0.907342
74.5357,0.907385
74.6023,0.907222
74.6689,0.907486
74.7355,0.907176
74.8021,0.90732
74.8687,0.907411
74.9353,0.907313
75.0019,0.906448
75.0685,0.907144
75.1352,0.90762
75.2018,0.907678
75.2684,0.90773
75.335,0.908051
75.4016,0.908033
75.4682,0.907009
75.5348,0.907717
75.6014,0.908836
75.668,0.907868
75.7346,0.906734
75.8012,0.906408
75.8679,0.905891
75.9345,0.906043
76.0011,0.905619
76.0677,0.905358
76.1343,0.904067
76.2009,0.905069
76.2675,0.906494
76.3341,0.904101
76.4007,0.904614
76.4673,0.906428
76.5339,0.906781
76.6006,0.907057
76.6672,0.907665
76.7338,0.907901
76.8004,0.908065
76.867,0.906733
76.9336,0.906528
77.0002,0.906117
77.0668,0.906308
77.1334,0.90725
77.2,0.90657
77.2666,0.907187
77.3333,0.907001
77.3999,0.90649
77.4665,0.906607
77.5331,0.907906
77.5997,0.90823
77.6663,0.90774
77.7329,0.908364
77.7995,0.908101
77.8661,0.908263
77.9327,0.908468
77.9994,0.907897
78.066,0.90761
78.1326,0.907572
78.1992,0.907914
78.2658,0.907685
78.3324,0.907572
78.399,0.90758
78.4656,0.907321
78.5322,0.907815
78.5988,0.907712
78.6654,0.908033
78.7321,0.90806
78.7987,0.908545
78.8653,0.908565
78.9319,0.908523
78.9985,0.908802
79.0651,0.908477
79.1317,0.908562
