time (in seconds),queue density
0.0666092,0.0314723
0.133218,0.0423844
0.199828,0.0593065
0.266437,0.0727548
0.333046,0.0783573
0.399655,0.0877779
0.466264,0.0970403
0.532873,0.101729
0.599483,0.108
0.666092,0.112843
0.732701,0.115233
0.79931,0.118953
0.865919,0.123156
0.932529,0.123904
0.999138,0.127138
1.06575,0.129891
1.13236,0.130558
1.19897,0.13313
1.26557,0.135671
1.33218,0.136338
1.39879,0.137961
1.4654,0.13947
1.53201,0.139922
1.59862,0.142417
1.66523,0.145152
1.73184,0.146351
1.79845,0.148939
1.86506,0.15251
1.93167,0.152921
1.99828,0.153819
2.06488,0.154889
2.13149,0.154981
2.1981,0.155623
2.26471,0.15576
2.33132,0.156557
2.39793,0.15654
2.46454,0.157298
2.53115,0.157397
2.59776,0.157592
2.66437,0.158195
2.73098,0.158469
2.79759,0.158735
2.86419,0.15856
2.9308,0.159593
2.99741,0.159136
3.06402,0.159152
3.13063,0.159704
3.19724,0.160446
3.26385,0.161228
3.33046,0.16172
3.39707,0.161954
3.46368,0.163543
3.53029,0.164445
3.5969,0.166119
3.6635,0.167639
3.73011,0.168158
3.79672,0.169297
3.86333,0.16975
3.92994,0.170286
3.99655,0.170665
4.06316,0.1708
4.12977,0.170481
4.19638,0.169778
4.26299,0.169083
4.3296,0.169315
4.39621,0.16944
4.46282,0.168949
4.52942,0.169338
4.59603,0.171355
4.66264,0.172808
4.72925,0.173788
4.79586,0.175333
4.86247,0.176408
4.92908,0.177048
4.99569,0.178453
5.0623,0.179302
5.12891,0.180013
5.19552,0.182605
5.26213,0.185882
5.32873,0.187809
5.39534,0.189203
5.46195,0.191418
5.52856,0.19329
5.59517,0.198146
5.66178,0.203598
5.72839,0.206473
5.795,0.212934
5.86161,0.219152
5.92822,0.222203
5.99483,0.229206
6.06144,0.235842
6.12804,0.237963
6.19465,0.241301
6.26126,0.245549
6.32787,0.246942
6.39448,0.250084
6.46109,0.252354
6.5277,0.25388
6.59431,0.256778
6.66092,0.257696
6.72753,0.257304
6.79414,0.25613
6.86075,0.254628
6.92735,0.253943
6.99396,0.251304
7.06057,0.250404
7.12718,0.249679
7.19379,0.249477
7.2604,0.25137
7.32701,0.252671
7.39362,0.25587
7.46023,0.258399
7.52684,0.260576
7.59345,0.264825
7.66006,0.268019
7.72666,0.269351
7.79327,0.271993
7.85988,0.272719
7.92649,0.271314
7.9931,0.271517
8.05971,0.271876
8.12632,0.272181
8.19293,0.273325
8.25954,0.273878
8.32615,0.273926
8.39276,0.275286
8.45937,0.278708
8.52598,0.280644
8.59258,0.283873
8.65919,0.290676
8.7258,0.291899
8.79241,0.294471
8.85902,0.295026
8.92563,0.296094
8.99224,0.297574
9.05885,0.299425
9.12546,0.300501
9.19207,0.300771
9.25868,0.301561
9.32529,0.302569
9.39189,0.30147
9.4585,0.300632
9.52511,0.299572
9.59172,0.297206
9.65833,0.296305
9.72494,0.296424
9.79155,0.294431
9.85816,0.293824
9.92477,0.292617
9.99138,0.291264
10.058,0.290164
10.1246,0.290037
10.1912,0.289406
10.2578,0.288008
10.3244,0.287119
10.391,0.285265
10.4576,0.283844
10.5243,0.282613
10.5909,0.281061
10.6575,0.280402
10.7241,0.280128
10.7907,0.278668
10.8573,0.277155
10.9239,0.276861
10.9905,0.275956
11.0571,0.275734
11.1237,0.276032
11.1903,0.275682
11.257,0.274913
11.3236,0.274595
11.3902,0.273075
11.4568,0.272185
11.5234,0.272364
11.59,0.272308
11.6566,0.272003
11.7232,0.27138
11.7898,0.270486
11.8564,0.270395
11.923,0.270339
11.9897,0.270185
12.0563,0.269284
12.1229,0.269121
12.1895,0.268176
12.2561,0.267751
12.3227,0.267366
12.3893,0.266159
12.4559,0.265266
12.5225,0.265735
12.5891,0.265512
12.6557,0.265175
12.7224,0.264766
12.789,0.26377
12.8556,0.2635
12.9222,0.26078
12.9888,0.260614
13.0554,0.260701
13.122,0.26084
13.1886,0.260752
13.2552,0.260995
13.3218,0.260764
13.3884,0.260649
13.4551,0.260467
13.5217,0.260637
13.5883,0.261276
13.6549,0.260729
13.7215,0.260169
13.7881,0.259601
13.8547,0.259621
13.9213,0.259573
13.9879,0.259922
14.0545,0.260081
14.1211,0.260002
14.1878,0.259116
14.2544,0.259283
14.321,0.259212
14.3876,0.258997
14.4542,0.258926
14.5208,0.259236
14.5874,0.259887
14.654,0.260029
14.7206,0.259684
14.7872,0.25999
14.8538,0.259712
14.9205,0.259546
14.9871,0.259518
15.0537,0.259256
15.1203,0.259196
15.1869,0.258843
15.2535,0.258394
15.3201,0.258557
15.3867,0.258434
15.4533,0.258882
15.5199,0.258493
15.5865,0.258676
15.6532,0.259112
15.7198,0.258839
15.7864,0.258596
15.853,0.257521
15.9196,0.256381
15.9862,0.257394
16.0528,0.259505
16.1194,0.259164
16.186,0.260069
16.2526,0.259224
16.3192,0.25922
16.3859,0.259566
16.4525,0.259331
16.5191,0.258875
16.5857,0.258926
16.6523,0.258517
16.7189,0.258414
16.7855,0.257794
16.8521,0.25766
16.9187,0.257489
16.9853,0.257802
17.052,0.25787
17.1186,0.257854
17.1852,0.258711
17.2518,0.258632
17.3184,0.258283
17.385,0.258064
17.4516,0.25839
17.5182,0.258636
17.5848,0.258842
17.6514,0.259172
17.718,0.258854
17.7847,0.258573
17.8513,0.258628
17.9179,0.258342
17.9845,0.258553
18.0511,0.258068
18.1177,0.257505
18.1843,0.25758
18.2509,0.257798
18.3175,0.258
18.3841,0.258227
18.4507,0.258771
18.5174,0.258861
18.584,0.259654
18.6506,0.261231
18.7172,0.26247
18.7838,0.26411
18.8504,0.266485
18.917,0.2668
18.9836,0.268441
19.0502,0.269676
19.1168,0.26956
19.1834,0.268751
19.2501,0.267126
19.3167,0.266071
19.3833,0.265141
19.4499,0.263887
19.5165,0.263645
19.5831,0.262348
19.6497,0.261306
19.7163,0.260887
19.7829,0.259255
19.8495,0.257699
19.9161,0.257139
19.9828,0.256044
20.0494,0.255066
20.116,0.254628
20.1826,0.254713
20.2492,0.254596
20.3158,0.255093
20.3824,0.25525
20.449,0.255634
20.5156,0.25549
20.5822,0.255797
20.6488,0.257274
20.7155,0.256921
20.7821,0.256624
20.8487,0.257571
20.9153,0.257377
20.9819,0.25833
21.0485,0.258279
21.1151,0.258219
21.1817,0.257536
21.2483,0.259636
21.3149,0.259236
21.3815,0.258643
21.4482,0.258465
21.5148,0.258409
21.5814,0.258771
21.648,0.259247
21.7146,0.259267
21.7812,0.259588
21.8478,0.259668
21.9144,0.2596
21.981,0.259739
22.0476,0.259219
22.1142,0.259036
22.1809,0.259557
22.2475,0.259795
22.3141,0.260069
22.3807,0.260014
22.4473,0.260192
22.5139,0.26028
22.5805,0.260752
22.6471,0.261136
22.7137,0.261974
22.7803,0.262545
22.8469,0.264138
22.9136,0.263518
22.9802,0.264732
23.0468,0.266146
23.1134,0.266904
23.18,0.267347
23.2466,0.267631
23.3132,0.267446
23.3798,0.267452
23.4464,0.267263
23.513,0.267258
23.5796,0.267337
23.6463,0.267936
23.7129,0.268184
23.7795,0.268367
23.8461,0.268628
23.9127,0.268624
23.9793,0.268854
24.0459,0.269148
24.1125,0.269489
24.1791,0.269716
24.2457,0.269477
24.3124,0.269287
24.379,0.269458
24.4456,0.269029
24.5122,0.268874
24.5788,0.26926
24.6454,0.269029
24.712,0.269232
24.7786,0.268787
24.8452,0.268632
24.9118,0.268414
24.9784,0.267767
25.0451,0.26812
25.1117,0.267807
25.1783,0.267168
25.2449,0.267358
25.3115,0.267739
25.3781,0.268032
25.4447,0.268948
25.5113,0.269436
25.5779,0.272177
25.6445,0.273867
25.7111,0.274477
25.7778,0.275731
25.8444,0.277536
25.911,0.278952
25.9776,0.280529
26.0442,0.282032
26.1108,0.282071
26.1774,0.282677
26.244,0.28347
26.3106,0.284289
26.3772,0.285164
26.4438,0.28597
26.5105,0.286225
26.5771,0.286801
26.6437,0.287534
26.7103,0.287024
26.7769,0.287463
26.8435,0.288549
26.9101,0.289705
26.9767,0.292273
27.0433,0.295141
27.1099,0.296408
27.1765,0.299593
27.2432,0.303316
27.3098,0.305768
27.3764,0.309584
27.443,0.315251
27.5096,0.317722
27.5762,0.323233
27.6428,0.328184
27.7094,0.330441
27.776,0.335487
27.8426,0.339665
27.9092,0.344347
27.9759,0.34832
28.0425,0.353432
28.1091,0.356228
28.1757,0.362079
28.2423,0.368962
28.3089,0.371504
28.3755,0.377739
28.4421,0.382897
28.5087,0.385021
28.5753,0.391125
28.6419,0.396523
28.7086,0.398893
28.7752,0.404714
28.8418,0.409649
28.9084,0.412684
28.975,0.416619
29.0416,0.419636
29.1082,0.420094
29.1748,0.423872
29.2414,0.4268
29.308,0.426156
29.3746,0.428407
29.4413,0.430597
29.5079,0.430816
29.5745,0.438619
29.6411,0.438817
29.7077,0.439755
29.7743,0.441691
29.8409,0.444273
29.9075,0.444701
29.9741,0.446207
30.0407,0.448269
30.1073,0.448767
30.174,0.450891
30.2406,0.452727
30.3072,0.452838
30.3738,0.454077
30.4404,0.456806
30.507,0.457338
30.5736,0.459
30.6402,0.461456
30.7068,0.461861
30.7734,0.463851
30.8401,0.464699
30.9067,0.465232
30.9733,0.466453
31.0399,0.467335
31.1065,0.467722
31.1731,0.46818
31.2397,0.472996
31.3063,0.472303
31.3729,0.473452
31.4395,0.473767
31.5061,0.473411
31.5728,0.474115
31.6394,0.473625
31.706,0.473637
31.7726,0.473669
31.8392,0.474133
31.9058,0.474532
31.9724,0.474855
32.039,0.474734
32.1056,0.475052
32.1722,0.47558
32.2388,0.475643
32.3055,0.47586
32.3721,0.475957
32.4387,0.476319
32.5053,0.476362
32.5719,0.47599
32.6385,0.476506
32.7051,0.476145
32.7717,0.476246
32.8383,0.476103
32.9049,0.476126
32.9715,0.476833
33.0382,0.477418
33.1048,0.476937
33.1714,0.477335
33.238,0.479779
33.3046,0.4811
33.3712,0.485816
33.4378,0.491403
33.5044,0.494225
33.571,0.498901
33.6376,0.5022
33.7042,0.504492
33.7709,0.508465
33.8375,0.512213
33.9041,0.513745
33.9707,0.516917
34.0373,0.519204
34.1039,0.519732
34.1705,0.522357
34.2371,0.524212
34.3037,0.5254
34.3703,0.527369
34.4369,0.53202
34.5036,0.533144
34.5702,0.544253
34.6368,0.54736
34.7034,0.547843
34.77,0.551372
34.8366,0.556641
34.9032,0.558735
34.9698,0.56217
35.0364,0.562792
35.103,0.563336
35.1696,0.563455
35.2363,0.565142
35.3029,0.565185
35.3695,0.566332
35.4361,0.567508
35.5027,0.5686
35.5693,0.571686
35.6359,0.572266
35.7025,0.57316
35.7691,0.575453
35.8357,0.577334
35.9023,0.578165
35.969,0.578521
36.0356,0.580575
36.1022,0.581259
36.1688,0.583171
36.2354,0.585224
36.302,0.58543
36.3686,0.585508
36.4352,0.586141
36.5018,0.585888
36.5684,0.584796
36.635,0.584132
36.7017,0.58389
36.7683,0.583435
36.8349,0.583427
36.9015,0.583447
36.9681,0.583397
37.0347,0.582701
37.1013,0.582472
37.1679,0.582313
37.2345,0.582388
37.3011,0.581967
37.3678,0.581022
37.4344,0.580658
37.501,0.580351
37.5676,0.579921
37.6342,0.579299
37.7008,0.579503
37.7674,0.579156
37.834,0.577834
37.9006,0.572637
37.9672,0.573569
38.0338,0.574603
38.1005,0.574959
38.1671,0.576756
38.2337,0.578607
38.3003,0.580567
38.3669,0.581773
38.4335,0.584155
38.5001,0.585585
38.5667,0.588584
38.6333,0.591988
38.6999,0.593868
38.7665,0.597537
38.8332,0.601149
38.8998,0.603469
38.9664,0.606773
39.033,0.609608
39.0996,0.611844
39.1662,0.615524
39.2328,0.618556
39.2994,0.619658
39.366,0.622656
39.4326,0.628733
39.4992,0.629311
39.5659,0.641737
39.6325,0.647441
39.6991,0.650979
39.7657,0.654746
39.8323,0.658558
39.8989,0.660182
39.9655,0.663944
40.0321,0.667087
40.0987,0.668012
40.1653,0.671064
40.2319,0.674679
40.2986,0.676319
40.3652,0.682798
40.4318,0.687216
40.4984,0.689738
40.565,0.693045
40.6316,0.69689
40.6982,0.698042
40.7648,0.7008
40.8314,0.703486
40.898,0.704063
40.9646,0.70464
41.0313,0.706037
41.0979,0.706274
41.1645,0.706516
41.2311,0.724328
41.2977,0.724267
41.3643,0.724304
41.4309,0.723928
41.4975,0.723527
41.5641,0.723873
41.6307,0.723585
41.6973,0.723421
41.764,0.723539
41.8306,0.724485
41.8972,0.726963
41.9638,0.728695
42.0304,0.731841
42.097,0.731905
42.1636,0.73302
42.2302,0.734207
42.2968,0.736451
42.3634,0.736906
42.43,0.737821
42.4967,0.738632
42.5633,0.739172
42.6299,0.73884
42.6965,0.73883
42.7631,0.738485
42.8297,0.738797
42.8963,0.764205
42.9629,0.763976
43.0295,0.764462
43.0961,0.764396
43.1627,0.76452
43.2294,0.764661
43.296,0.76497
43.3626,0.765299
43.4292,0.765684
43.4958,0.767867
43.5624,0.76833
43.629,0.768418
43.6956,0.768324
43.7622,0.768079
43.8288,0.768294
43.8954,0.768009
43.9621,0.768226
44.0287,0.767879
44.0953,0.768651
44.1619,0.768577
44.2285,0.768369
44.2951,0.76801
44.3617,0.767611
44.4283,0.767253
44.4949,0.766905
44.5615,0.761626
44.6282,0.761292
44.6948,0.760863
44.7614,0.760936
44.828,0.760568
44.8946,0.760292
44.9612,0.761548
45.0278,0.761623
45.0944,0.76282
45.161,0.764025
45.2276,0.764189
45.2942,0.76528
45.3609,0.765128
45.4275,0.764343
45.4941,0.764709
45.5607,0.764134
45.6273,0.763572
45.6939,0.763775
45.7605,0.763919
45.8271,0.764177
45.8937,0.764429
45.9603,0.763938
46.0269,0.763454
46.0936,0.763305
46.1602,0.76345
46.2268,0.773113
46.2934,0.773515
46.36,0.773332
46.4266,0.772371
46.4932,0.772208
46.5598,0.772645
46.6264,0.77215
46.693,0.772938
46.7596,0.772947
46.8263,0.773845
46.8929,0.773223
46.9595,0.774894
47.0261,0.776781
47.0927,0.777035
47.1593,0.777405
47.2259,0.780294
47.2925,0.785365
47.3591,0.785953
47.4257,0.786651
47.4923,0.787522
47.559,0.787082
47.6256,0.792461
47.6922,0.795212
47.7588,0.800196
47.8254,0.80262
47.892,0.839583
47.9586,0.839379
48.0252,0.840014
48.0918,0.839541
48.1584,0.839947
48.225,0.839745
48.2917,0.840767
48.3583,0.840363
48.4249,0.840967
48.4915,0.841171
48.5581,0.840654
48.6247,0.841269
48.6913,0.841996
48.7579,0.841785
48.8245,0.841516
48.8911,0.842855
48.9577,0.844106
49.0244,0.844388
49.091,0.844347
49.1576,0.844347
49.2242,0.846749
49.2908,0.847329
49.3574,0.847537
49.424,0.848701
49.4906,0.848926
49.5572,0.861885
49.6238,0.862734
49.6904,0.862393
49.7571,0.86334
49.8237,0.86452
49.8903,0.865243
49.9569,0.870695
50.0235,0.871938
50.0901,0.872416
50.1567,0.872065
50.2233,0.872563
50.2899,0.873382
50.3565,0.873402
50.4231,0.874936
50.4898,0.874277
50.5564,0.875158
50.623,0.878306
50.6896,0.879498
50.7562,0.885181
50.8228,0.885508
50.8894,0.886075
50.956,0.886358
51.0226,0.88738
51.0892,0.887794
51.1559,0.887629
51.2225,0.894859
51.2891,0.895613
51.3557,0.895354
51.4223,0.895767
51.4889,0.895706
51.5555,0.895381
51.6221,0.895223
51.6887,0.895196
51.7553,0.89451
51.8219,0.894402
51.8886,0.894317
51.9552,0.89374
52.0218,0.893874
52.0884,0.893685
52.155,0.893313
52.2216,0.893087
52.2882,0.892762
52.3548,0.89266
52.4214,0.892677
52.488,0.892659
52.5546,0.892114
52.6213,0.891518
52.6879,0.891167
52.7545,0.890555
52.8211,0.889417
52.8877,0.883639
52.9543,0.883754
53.0209,0.88352
53.0875,0.883582
53.1541,0.88312
53.2207,0.88294
53.2873,0.882752
53.354,0.882201
53.4206,0.879483
53.4872,0.879151
53.5538,0.878514
53.6204,0.877468
53.687,0.877287
53.7536,0.875988
53.8202,0.876349
53.8868,0.876162
53.9534,0.877263
54.02,0.879814
54.0867,0.883258
54.1533,0.891785
54.2199,0.89273
54.2865,0.893383
54.3531,0.894314
54.4197,0.89537
54.4863,0.895125
54.5529,0.900255
54.6195,0.900123
54.6861,0.9002
54.7527,0.901745
54.8194,0.902761
54.886,0.902894
54.9526,0.905051
55.0192,0.905415
55.0858,0.905002
55.1524,0.90489
55.219,0.905644
55.2856,0.906057
55.3522,0.906616
55.4188,0.908631
55.4854,0.908672
55.5521,0.908268
55.6187,0.908573
55.6853,0.908673
55.7519,0.908735
55.8185,0.908502
55.8851,0.908622
55.9517,0.908846
56.0183,0.908912
56.0849,0.90876
56.1515,0.908989
56.2181,0.909957
56.2848,0.909766
56.3514,0.910351
56.418,0.910124
56.4846,0.910026
56.5512,0.909823
56.6178,0.910013
56.6844,0.909907
56.751,0.909863
56.8176,0.909855
56.8842,0.909723
56.9508,0.909621
57.0175,0.90921
57.0841,0.909099
57.1507,0.909017
57.2173,0.908827
57.2839,0.909035
57.3505,0.909008
57.4171,0.909152
57.4837,0.908991
57.5503,0.908952
57.6169,0.909418
57.6836,0.909448
57.7502,0.909349
57.8168,0.909391
57.8834,0.907576
57.95,0.907341
58.0166,0.907448
58.0832,0.90757
58.1498,0.907618
58.2164,0.908295
58.283,0.908162
58.3496,0.908096
58.4163,0.908375
58.4829,0.909279
58.5495,0.90988
58.6161,0.909868
58.6827,0.909811
58.7493,0.909635
58.8159,0.909543
58.8825,0.909665
58.9491,0.909175
59.0157,0.909341
59.0823,0.909256
59.149,0.909283
59.2156,0.909215
59.2822,0.909224
59.3488,0.909076
59.4154,0.908791
59.482,0.908918
59.5486,0.909105
59.6152,0.909127
59.6818,0.909055
59.7484,0.909047
59.815,0.908884
59.8817,0.909089
59.9483,0.909174
60.0149,0.909057
60.0815,0.909206
60.1481,0.909237
60.2147,0.90921
60.2813,0.908919
60.3479,0.90908
60.4145,0.908857
60.4811,0.908894
60.5477,0.90907
60.6144,0.909308
60.681,0.909245
60.7476,0.909335
60.8142,0.909537
60.8808,0.909703
60.9474,0.910096
61.014,0.909976
61.0806,0.909872
61.1472,0.909943
61.2138,0.90994
61.2804,0.909939
61.3471,0.90994
61.4137,0.909989
61.4803,0.909918
61.5469,0.910007
61.6135,0.909877
61.6801,0.909734
61.7467,0.909742
61.8133,0.909783
61.8799,0.907977
61.9465,0.908082
62.0131,0.908073
62.0798,0.90859
62.1464,0.908503
62.213,0.908815
62.2796,0.909058
62.3462,0.908742
62.4128,0.908676
62.4794,0.908704
62.546,0.908941
62.6126,0.908477
62.6792,0.90847
62.7458,0.908088
62.8125,0.908144
62.8791,0.908131
62.9457,0.907975
63.0123,0.907945
63.0789,0.908218
63.1455,0.908256
63.2121,0.908127
63.2787,0.907652
63.3453,0.907707
63.4119,0.907798
63.4785,0.907765
63.5452,0.90849
63.6118,0.908373
63.6784,0.908163
63.745,0.908345
63.8116,0.908339
63.8782,0.908147
63.9448,0.908364
64.0114,0.908051
64.078,0.908044
64.1446,0.908131
64.2112,0.908305
64.2779,0.908632
64.3445,0.908463
64.4111,0.90848
64.4777,0.908449
64.5443,0.908436
64.6109,0.908269
64.6775,0.908081
64.7441,0.908131
64.8107,0.908068
64.8773,0.907804
64.944,0.907533
65.0106,0.907542
65.0772,0.907679
65.1438,0.907604
65.2104,0.907733
65.277,0.907315
65.3436,0.907302
65.4102,0.907066
65.4768,0.907302
65.5434,0.907219
65.61,0.907636
65.6767,0.907434
65.7433,0.907681
65.8099,0.908455
65.8765,0.908297
65.9431,0.908387
66.0097,0.908631
66.0763,0.908279
66.1429,0.908464
66.2095,0.908267
66.2761,0.908133
66.3427,0.908107
66.4094,0.908133
66.476,0.908465
66.5426,0.908613
66.6092,0.909011
66.6758,0.908887
66.7424,0.908917
66.809,0.908845
66.8756,0.909536
66.9422,0.909295
67.0088,0.909012
67.0754,0.90877
67.1421,0.909034
67.2087,0.908656
67.2753,0.906865
67.3419,0.906837
67.4085,0.906742
67.4751,0.906512
67.5417,0.906512
67.6083,0.906403
67.6749,0.906179
67.7415,0.906371
67.8081,0.906873
67.8748,0.906938
67.9414,0.906807
68.008,0.906608
68.0746,0.906435
68.1412,0.906706
68.2078,0.906619
68.2744,0.906516
68.341,0.906672
68.4076,0.906623
68.4742,0.906536
68.5408,0.906161
68.6075,0.906151
68.6741,0.906382
68.7407,0.90626
68.8073,0.906256
68.8739,0.906103
68.9405,0.905565
69.0071,0.905544
69.0737,0.905435
69.1403,0.905418
69.2069,0.9054
69.2735,0.905732
69.3402,0.905693
69.4068,0.90562
69.4734,0.905576
69.54,0.905608
69.6066,0.905552
69.6732,0.905576
69.7398,0.905354
69.8064,0.905479
69.873,0.905798
69.9396,0.905857
70.0062,0.906004
70.0729,0.905844
70.1395,0.905868
70.2061,0.905824
70.2727,0.905882
70.3393,0.906085
70.4059,0.905953
70.4725,0.906367
70.5391,0.906548
70.6057,0.907607
70.6723,0.907185
70.7389,0.906901
70.8056,0.90676
70.8722,0.906246
70.9388,0.906611
71.0054,0.907002
71.072,0.906942
71.1386,0.906985
71.2052,0.907055
71.2718,0.907288
71.3384,0.907361
71.405,0.906652
71.4717,0.906919
71.5383,0.907108
71.6049,0.90699
71.6715,0.906779
71.7381,0.906619
71.8047,0.906716
71.8713,0.906711
71.9379,0.906648
72.0045,0.906616
72.0711,0.906507
72.1377,0.906907
72.2044,0.906791
72.271,0.909404
72.3376,0.909392
72.4042,0.908962
72.4708,0.909075
72.5374,0.909353
72.604,0.909191
72.6706,0.90923
72.7372,0.909041
72.8038,0.908778
72.8704,0.908591
72.9371,0.908488
73.0037,0.908394
73.0703,0.908174
73.1369,0.908386
73.2035,0.908537
73.2701,0.90828
73.3367,0.908095
73.4033,0.907933
73.4699,0.907836
73.5365,0.907969
73.6031,0.90777
73.6698,0.907911
73.7364,0.907888
73.803,0.90808
73.8696,0.908066
73.9362,0.906791
74.0028,0.907165
74.0694,0.907349
74.136,0.907237
74.2026,0.907439
74.2692,0.907319
74.3358,0.906997
74.4025,0.907069
74.4691,0.906725
74.5357,0.906896
74.6023,0.906905
74.6689,0.907185
74.7355,0.906952
74.8021,0.907038
74.8687,0.906973
74.9353,0.906576
75.0019,0.905546
75.0685,0.906758
75.1352,0.907278
75.2018,0.906719
75.2684,0.906905
75.335,0.908122
75.4016,0.908056
75.4682,0.906972
75.5348,0.907377
75.6014,0.908422
75.668,0.907555
75.7346,0.906562
75.8012,0.906262
75.8679,0.905709
75.9345,0.90605
76.0011,0.905374
76.0677,0.905011
76.1343,0.903682
76.2009,0.904507
76.2675,0.906095
76.3341,0.904104
76.4007,0.904563
76.4673,0.906323
76.5339,0.906472
76.6006,0.906746
76.6672,0.907319
76.7338,0.907764
76.8004,0.907882
76.867,0.906631
76.9336,0.906441
77.0002,0.906032
77.0668,0.906237
77.1334,0.907269
77.2,0.906511
77.2666,0.906698
77.3333,0.906366
77.3999,0.906041
77.4665,0.906293
77.5331,0.907472
77.5997,0.907548
77.6663,0.907392
77.7329,0.907898
77.7995,0.907824
77.8661,0.907985
77.9327,0.908225
77.9994,0.907542
78.066,0.90717
78.1326,0.907171
78.1992,0.907355
78.2658,0.907067
78.3324,0.907149
78.399,0.907278
78.4656,0.907198
78.5322,0.907583
78.5988,0.907804
78.6654,0.908166
78.7321,0.908127
78.7987,0.908556
78.8653,0.908541
78.9319,0.907895
78.9985,0.908294
79.0651,0.907802
79.1317,0.907899
