time (in seconds),queue density
0.0666092,0.0317183
0.133218,0.0433413
0.199828,0.0612382
0.266437,0.0744051
0.333046,0.0799345
0.399655,0.0897235
0.466264,0.0991128
0.532873,0.103553
0.599483,0.109627
0.666092,0.113569
0.732701,0.11583
0.79931,0.119251
0.865919,0.122645
0.932529,0.123754
0.999138,0.126709
1.06575,0.129099
1.13236,0.13009
1.19897,0.132583
1.26557,0.135306
1.33218,0.136114
1.39879,0.137567
1.4654,0.139394
1.53201,0.139699
1.59862,0.14276
1.66523,0.145338
1.73184,0.146953
1.79845,0.149633
1.86506,0.154038
1.93167,0.154297
1.99828,0.154971
2.06488,0.155935
2.13149,0.155989
2.1981,0.156279
2.26471,0.156244
2.33132,0.157118
2.39793,0.156515
2.46454,0.157138
2.53115,0.157279
2.59776,0.157588
2.66437,0.158019
2.73098,0.158478
2.79759,0.158548
2.86419,0.158215
2.9308,0.159579
2.99741,0.159066
3.06402,0.158968
3.13063,0.15943
3.19724,0.160664
3.26385,0.160476
3.33046,0.161378
3.39707,0.161715
3.46368,0.163592
3.53029,0.164556
3.5969,0.166257
3.6635,0.168036
3.73011,0.168651
3.79672,0.16985
3.86333,0.170383
3.92994,0.170783
3.99655,0.171316
4.06316,0.171339
4.12977,0.170881
4.19638,0.169164
4.26299,0.167761
4.3296,0.167483
4.39621,0.166844
4.46282,0.165963
4.52942,0.166002
4.59603,0.16771
4.66264,0.169215
4.72925,0.170136
4.79586,0.172041
4.86247,0.173071
4.92908,0.173718
4.99569,0.174984
5.0623,0.176085
5.12891,0.177092
5.19552,0.18056
5.26213,0.183997
5.32873,0.186226
5.39534,0.188229
5.46195,0.190635
5.52856,0.192618
5.59517,0.198159
5.66178,0.204766
5.72839,0.207666
5.795,0.214273
5.86161,0.221111
5.92822,0.224101
5.99483,0.231206
6.06144,0.237538
6.12804,0.239952
6.19465,0.242684
6.26126,0.246132
6.32787,0.247041
6.39448,0.249447
6.46109,0.251501
6.5277,0.252735
6.59431,0.255106
6.66092,0.255941
6.72753,0.255243
6.79414,0.253997
6.86075,0.252402
6.92735,0.251689
6.99396,0.248593
7.06057,0.247445
7.12718,0.246407
7.19379,0.246497
7.2604,0.248448
7.32701,0.249953
7.39362,0.253045
7.46023,0.255874
7.52684,0.258312
7.59345,0.26223
7.66006,0.265514
7.72666,0.267156
7.79327,0.26979
7.85988,0.270319
7.92649,0.269351
7.9931,0.269484
8.05971,0.269641
8.12632,0.270174
8.19293,0.270558
8.25954,0.270734
8.32615,0.270679
8.39276,0.272223
8.45937,0.274449
8.52598,0.276593
8.59258,0.279297
8.65919,0.284943
8.7258,0.286244
8.79241,0.289231
8.85902,0.290516
8.92563,0.291825
8.99224,0.293204
9.05885,0.295708
9.12546,0.296876
9.19207,0.297597
9.25868,0.299114
9.32529,0.299572
9.39189,0.298232
9.4585,0.297942
9.52511,0.296453
9.59172,0.294004
9.65833,0.293557
9.72494,0.293475
9.79155,0.291746
9.85816,0.291162
9.92477,0.289975
9.99138,0.288839
10.058,0.287126
10.1246,0.28789
10.1912,0.286734
10.2578,0.285907
10.3244,0.284755
10.391,0.282769
10.4576,0.281268
10.5243,0.280245
10.5909,0.278536
10.6575,0.278148
10.7241,0.277631
10.7907,0.276385
10.8573,0.274473
10.9239,0.274155
10.9905,0.273634
11.0571,0.273552
11.1237,0.273434
11.1903,0.273297
11.257,0.272117
11.3236,0.272227
11.3902,0.270726
11.4568,0.26979
11.5234,0.269641
11.59,0.269766
11.6566,0.269225
11.7232,0.268779
11.7898,0.268058
11.8564,0.267724
11.923,0.267607
11.9897,0.267638
12.0563,0.2668
12.1229,0.266325
12.1895,0.265875
12.2561,0.265185
12.3227,0.264778
12.3893,0.263022
12.4559,0.262379
12.5225,0.262885
12.5891,0.262701
12.6557,0.262195
12.7224,0.261929
12.789,0.260941
12.8556,0.260643
12.9222,0.258374
12.9888,0.258135
13.0554,0.258312
13.122,0.258355
13.1886,0.258041
13.2552,0.258147
13.3218,0.257916
13.3884,0.257955
13.4551,0.257916
13.5217,0.258041
13.5883,0.258492
13.6549,0.25763
13.7215,0.257226
13.7881,0.256783
13.8547,0.257038
13.9213,0.257042
13.9879,0.257493
14.0545,0.257598
14.1211,0.257418
14.1878,0.256944
14.2544,0.256685
14.321,0.256764
14.3876,0.25658
14.4542,0.256564
14.5208,0.256595
14.5874,0.256591
14.654,0.256662
14.7206,0.256344
14.7872,0.256634
14.8538,0.256274
14.9205,0.256117
14.9871,0.256051
15.0537,0.256051
15.1203,0.25616
15.1869,0.255835
15.2535,0.255561
15.3201,0.255808
15.3867,0.255612
15.4533,0.256203
15.5199,0.255953
15.5865,0.256078
15.6532,0.256376
15.7198,0.256211
15.7864,0.25596
15.853,0.254655
15.9196,0.253625
15.9862,0.2548
16.0528,0.256842
16.1194,0.256893
16.186,0.25763
16.2526,0.257062
16.3192,0.256873
16.3859,0.256866
16.4525,0.256536
16.5191,0.256274
16.5857,0.256388
16.6523,0.255917
16.7189,0.255866
16.7855,0.25522
16.8521,0.255192
16.9187,0.254989
16.9853,0.255208
17.052,0.255306
17.1186,0.255224
17.1852,0.255913
17.2518,0.255968
17.3184,0.255702
17.385,0.255279
17.4516,0.25598
17.5182,0.25616
17.5848,0.256176
17.6514,0.256517
17.718,0.256313
17.7847,0.255882
17.8513,0.256019
17.9179,0.256047
17.9845,0.256137
18.0511,0.255616
18.1177,0.25509
18.1843,0.255102
18.2509,0.255451
18.3175,0.255392
18.3841,0.255866
18.4507,0.256407
18.5174,0.256529
18.584,0.257747
18.6506,0.259166
18.7172,0.260287
18.7838,0.262403
18.8504,0.264605
18.917,0.264907
18.9836,0.266627
19.0502,0.26774
19.1168,0.267869
19.1834,0.266984
19.2501,0.265154
19.3167,0.264315
19.3833,0.263281
19.4499,0.261646
19.5165,0.261114
19.5831,0.26015
19.6497,0.258774
19.7163,0.258523
19.7829,0.256854
19.8495,0.255279
19.9161,0.254514
19.9828,0.253515
20.0494,0.25268
20.116,0.25214
20.1826,0.252128
20.2492,0.252202
20.3158,0.252488
20.3824,0.252563
20.449,0.253111
20.5156,0.252825
20.5822,0.253135
20.6488,0.254859
20.7155,0.254495
20.7821,0.254154
20.8487,0.254887
20.9153,0.254632
20.9819,0.255439
21.0485,0.255232
21.1151,0.255012
21.1817,0.254299
21.2483,0.25674
21.3149,0.256309
21.3815,0.255847
21.4482,0.255588
21.5148,0.255612
21.5814,0.255996
21.648,0.256356
21.7146,0.256262
21.7812,0.256642
21.8478,0.256701
21.9144,0.256674
21.981,0.257007
22.0476,0.256525
22.1142,0.256474
22.1809,0.257046
22.2475,0.257234
22.3141,0.257391
22.3807,0.257426
22.4473,0.257469
22.5139,0.25783
22.5805,0.25819
22.6471,0.258704
22.7137,0.259577
22.7803,0.260424
22.8469,0.262187
22.9136,0.26138
22.9802,0.262838
23.0468,0.264668
23.1134,0.265365
23.18,0.265757
23.2466,0.265773
23.3132,0.26553
23.3798,0.265471
23.4464,0.265111
23.513,0.264989
23.5796,0.264977
23.6463,0.265115
23.7129,0.265275
23.7795,0.265216
23.8461,0.265506
23.9127,0.265734
23.9793,0.265824
24.0459,0.266071
24.1125,0.266482
24.1791,0.26642
24.2457,0.266184
24.3124,0.266075
24.379,0.266047
24.4456,0.265416
24.5122,0.265248
24.5788,0.265859
24.6454,0.26524
24.712,0.265354
24.7786,0.264821
24.8452,0.264495
24.9118,0.264272
24.9784,0.263767
25.0451,0.264021
25.1117,0.263676
25.1783,0.263273
25.2449,0.263292
25.3115,0.263767
25.3781,0.264033
25.4447,0.265162
25.5113,0.266
25.5779,0.268771
25.6445,0.270781
25.7111,0.271338
25.7778,0.272854
25.8444,0.274813
25.911,0.276028
25.9776,0.277803
26.0442,0.279034
26.1108,0.278889
26.1774,0.279293
26.244,0.280119
26.3106,0.280931
26.3772,0.281389
26.4438,0.282024
26.5105,0.282055
26.5771,0.282573
26.6437,0.282761
26.7103,0.282635
26.7769,0.283274
26.8435,0.284677
26.9101,0.285774
26.9767,0.288106
27.0433,0.291394
27.1099,0.292973
27.1765,0.296617
27.2432,0.300419
27.3098,0.303256
27.3764,0.307147
27.443,0.312951
27.5096,0.315478
27.5762,0.32127
27.6428,0.325765
27.7094,0.328195
27.776,0.333712
27.8426,0.33776
27.9092,0.342518
27.9759,0.34664
28.0425,0.351805
28.1091,0.354317
28.1757,0.359968
28.2423,0.366242
28.3089,0.368836
28.3755,0.374996
28.4421,0.380173
28.5087,0.382422
28.5753,0.38814
28.6419,0.393344
28.7086,0.395405
28.7752,0.401628
28.8418,0.406487
28.9084,0.409618
28.975,0.412886
29.0416,0.416793
29.1082,0.41704
29.1748,0.420046
29.2414,0.423831
29.308,0.423342
29.3746,0.425814
29.4413,0.427531
29.5079,0.427829
29.5745,0.434816
29.6411,0.435474
29.7077,0.436904
29.7743,0.438789
29.8409,0.441093
29.9075,0.441607
29.9741,0.442947
30.0407,0.444879
30.1073,0.445718
30.174,0.448155
30.2406,0.449942
30.3072,0.449969
30.3738,0.451412
30.4404,0.454025
30.507,0.45446
30.5736,0.456435
30.6402,0.458877
30.7068,0.459547
30.7734,0.461236
30.8401,0.461761
30.9067,0.462811
30.9733,0.463955
31.0399,0.465202
31.1065,0.465135
31.1731,0.465464
31.2397,0.470766
31.3063,0.470253
31.3729,0.47137
31.4395,0.471558
31.5061,0.471452
31.5728,0.472134
31.6394,0.471624
31.706,0.471499
31.7726,0.471844
31.8392,0.472071
31.9058,0.472577
31.9724,0.472745
32.039,0.47222
32.1056,0.472459
32.1722,0.47376
32.2388,0.473874
32.3055,0.473835
32.3721,0.474109
32.4387,0.474238
32.5053,0.473999
32.5719,0.47396
32.6385,0.47436
32.7051,0.474117
32.7717,0.474066
32.8383,0.473811
32.9049,0.47398
32.9715,0.474438
33.0382,0.474795
33.1048,0.474748
33.1714,0.474673
33.238,0.477824
33.3046,0.479254
33.3712,0.484121
33.4378,0.490234
33.5044,0.493424
33.571,0.498719
33.6376,0.50281
33.7042,0.504942
33.7709,0.509013
33.8375,0.512442
33.9041,0.514084
33.9707,0.517438
34.0373,0.519942
34.1039,0.520495
34.1705,0.523164
34.2371,0.524731
34.3037,0.525781
34.3703,0.527756
34.4369,0.532287
34.5036,0.53365
34.5702,0.543729
34.6368,0.546186
34.7034,0.547448
34.77,0.551136
34.8366,0.555866
34.9032,0.557856
34.9698,0.560952
35.0364,0.561575
35.103,0.562226
35.1696,0.562049
35.2363,0.563817
35.3029,0.564338
35.3695,0.565412
35.4361,0.566231
35.5027,0.567347
35.5693,0.570537
35.6359,0.571521
35.7025,0.572113
35.7691,0.574574
35.8357,0.576145
35.9023,0.576764
35.969,0.577332
36.0356,0.579774
36.1022,0.580307
36.1688,0.581819
36.2354,0.58401
36.302,0.584245
36.3686,0.5843
36.4352,0.58479
36.5018,0.584649
36.5684,0.582972
36.635,0.582678
36.7017,0.582572
36.7683,0.582517
36.8349,0.582172
36.9015,0.582266
36.9681,0.581964
37.0347,0.581506
37.1013,0.581416
37.1679,0.581169
37.2345,0.581921
37.3011,0.580628
37.3678,0.58053
37.4344,0.580236
37.501,0.579507
37.5676,0.578967
37.6342,0.57832
37.7008,0.578073
37.7674,0.577509
37.834,0.577105
37.9006,0.572058
37.9672,0.573461
38.0338,0.574542
38.1005,0.57513
38.1671,0.577003
38.2337,0.579237
38.3003,0.581141
38.3669,0.582627
38.4335,0.585711
38.5001,0.58718
38.5667,0.590578
38.6333,0.59425
38.6999,0.596319
38.7665,0.600316
38.8332,0.604184
38.8998,0.60639
38.9664,0.609979
39.033,0.61322
39.0996,0.615368
39.1662,0.619192
39.2328,0.621936
39.2994,0.623115
39.366,0.625815
39.4326,0.631752
39.4992,0.632638
39.5659,0.644566
39.6325,0.650143
39.6991,0.653744
39.7657,0.657514
39.8323,0.66137
39.8989,0.663325
39.9655,0.66686
40.0321,0.670073
40.0987,0.670943
40.1653,0.673937
40.2319,0.677554
40.2986,0.678977
40.3652,0.685368
40.4318,0.689765
40.4984,0.691865
40.565,0.695639
40.6316,0.699088
40.6982,0.70064
40.7648,0.703022
40.8314,0.705789
40.898,0.706608
40.9646,0.706753
41.0313,0.707983
41.0979,0.708395
41.1645,0.708309
41.2311,0.724959
41.2977,0.725096
41.3643,0.724861
41.4309,0.724995
41.4975,0.724387
41.5641,0.724814
41.6307,0.724438
41.6973,0.724215
41.764,0.724371
41.8306,0.72512
41.8972,0.727401
41.9638,0.729231
42.0304,0.731911
42.097,0.732252
42.1636,0.732957
42.2302,0.733914
42.2968,0.736853
42.3634,0.737268
42.43,0.738165
42.4967,0.73949
42.5633,0.739694
42.6299,0.739972
42.6965,0.739643
42.7631,0.739745
42.8297,0.739772
42.8963,0.76495
42.9629,0.764492
43.0295,0.764832
43.0961,0.764785
43.1627,0.765393
43.2294,0.765471
43.296,0.765499
43.3626,0.765977
43.4292,0.766514
43.4958,0.768798
43.5624,0.769167
43.629,0.769327
43.6956,0.769398
43.7622,0.768947
43.8288,0.769151
43.8954,0.769073
43.9621,0.769065
44.0287,0.768743
44.0953,0.769206
44.1619,0.769351
44.2285,0.768947
44.2951,0.76852
44.3617,0.768297
44.4283,0.768038
44.4949,0.767615
44.5615,0.762689
44.6282,0.762379
44.6948,0.761784
44.7614,0.761697
44.828,0.760902
44.8946,0.761023
44.9612,0.762144
45.0278,0.762144
45.0944,0.763794
45.161,0.764699
45.2276,0.764731
45.2942,0.765796
45.3609,0.765918
45.4275,0.76542
45.4941,0.766079
45.5607,0.765369
45.6273,0.765318
45.6939,0.765322
45.7605,0.765189
45.8271,0.765804
45.8937,0.76622
45.9603,0.765267
46.0269,0.764797
46.0936,0.764617
46.1602,0.764742
46.2268,0.774281
46.2934,0.773799
46.36,0.774292
46.4266,0.773462
46.4932,0.773046
46.5598,0.773701
46.6264,0.773101
46.693,0.773646
46.7596,0.773462
46.8263,0.77419
46.8929,0.773767
46.9595,0.775503
47.0261,0.777235
47.0927,0.777839
47.1593,0.777847
47.2259,0.780895
47.2925,0.785684
47.3591,0.786844
47.4257,0.787193
47.4923,0.788051
47.559,0.787792
47.6256,0.793
47.6922,0.79592
47.7588,0.801151
47.8254,0.803264
47.892,0.842231
47.9586,0.842043
48.0252,0.842545
48.0918,0.841855
48.1584,0.8424
48.225,0.842016
48.2917,0.842823
48.3583,0.842666
48.4249,0.843384
48.4915,0.843779
48.5581,0.843043
48.6247,0.84356
48.6913,0.844277
48.7579,0.844297
48.8245,0.844285
48.8911,0.845261
48.9577,0.846632
49.0244,0.847055
49.091,0.847322
49.1576,0.847212
49.2242,0.850187
49.2908,0.850394
49.3574,0.850653
49.424,0.851629
49.4906,0.851778
49.5572,0.865086
49.6238,0.865717
49.6904,0.865078
49.7571,0.866104
49.8237,0.866994
49.8903,0.86779
49.9569,0.873225
50.0235,0.874236
50.0901,0.874722
50.1567,0.874451
50.2233,0.874745
50.2899,0.875607
50.3565,0.876089
50.4231,0.877657
50.4898,0.876979
50.5564,0.877649
50.623,0.880956
50.6896,0.882124
50.7562,0.888081
50.8228,0.888559
50.8894,0.889366
50.956,0.889139
51.0226,0.890122
51.0892,0.890514
51.1559,0.890444
51.2225,0.897666
51.2891,0.898297
51.3557,0.898121
51.4223,0.898403
51.4889,0.898509
51.5555,0.897972
51.6221,0.897713
51.6887,0.897776
51.7553,0.89707
51.8219,0.896968
51.8886,0.896773
51.9552,0.896146
52.0218,0.896259
52.0884,0.896032
52.155,0.895679
52.2216,0.895405
52.2882,0.89533
52.3548,0.895299
52.4214,0.895158
52.488,0.895084
52.5546,0.894507
52.6213,0.8939
52.6879,0.893536
52.7545,0.892885
52.8211,0.8916
52.8877,0.88569
52.9543,0.885522
53.0209,0.885475
53.0875,0.885393
53.1541,0.885016
53.2207,0.884773
53.2873,0.88455
53.354,0.88377
53.4206,0.880988
53.4872,0.880808
53.5538,0.879793
53.6204,0.878852
53.687,0.878601
53.7536,0.877492
53.8202,0.877963
53.8868,0.877747
53.9534,0.879307
54.02,0.881936
54.0867,0.885122
54.1533,0.894002
54.2199,0.894903
54.2865,0.895542
54.3531,0.896447
54.4197,0.897015
54.4863,0.896937
54.5529,0.901632
54.6195,0.901965
54.6861,0.902055
54.7527,0.903082
54.8194,0.903611
54.886,0.903877
54.9526,0.906283
55.0192,0.906393
55.0858,0.905731
55.1524,0.905809
55.219,0.906275
55.2856,0.906334
55.3522,0.906867
55.4188,0.908768
55.4854,0.90865
55.5521,0.908474
55.6187,0.908446
55.6853,0.908513
55.7519,0.908529
55.8185,0.90849
55.8851,0.908615
55.9517,0.908674
56.0183,0.908678
56.0849,0.908697
56.1515,0.909058
56.2181,0.910551
56.2848,0.910229
56.3514,0.910731
56.418,0.910312
56.4846,0.9103
56.5512,0.910077
56.6178,0.910425
56.6844,0.910367
56.751,0.91032
56.8176,0.910355
56.8842,0.910237
56.9508,0.909885
57.0175,0.909583
57.0841,0.909438
57.1507,0.909356
57.2173,0.90945
57.2839,0.909599
57.3505,0.909438
57.4171,0.909552
57.4837,0.909548
57.5503,0.909555
57.6169,0.909563
57.6836,0.909622
57.7502,0.909477
57.8168,0.909614
57.8834,0.90791
57.95,0.907592
58.0166,0.907537
58.0832,0.907933
58.1498,0.907878
58.2164,0.90858
58.283,0.908591
58.3496,0.908725
58.4163,0.908815
58.4829,0.909775
58.5495,0.910331
58.6161,0.910104
58.6827,0.91021
58.7493,0.910124
58.8159,0.910163
58.8825,0.910135
58.9491,0.909904
59.0157,0.909951
59.0823,0.910034
59.149,0.910018
59.2156,0.909939
59.2822,0.91003
59.3488,0.909959
59.4154,0.909763
59.482,0.909861
59.5486,0.909951
59.6152,0.909916
59.6818,0.909618
59.7484,0.909501
59.815,0.90925
59.8817,0.909332
59.9483,0.909352
60.0149,0.909422
60.0815,0.909422
60.1481,0.909493
60.2147,0.909747
60.2813,0.90961
60.3479,0.909775
60.4145,0.909767
60.4811,0.90963
60.5477,0.909736
60.6144,0.909924
60.681,0.909681
60.7476,0.909896
60.8142,0.910065
60.8808,0.910202
60.9474,0.910237
61.014,0.910316
61.0806,0.9103
61.1472,0.910469
61.2138,0.910324
61.2804,0.910437
61.3471,0.910277
61.4137,0.91048
61.4803,0.91041
61.5469,0.91041
61.6135,0.910155
61.6801,0.910037
61.7467,0.910002
61.8133,0.909896
61.8799,0.908556
61.9465,0.908572
62.0131,0.908458
62.0798,0.908752
62.1464,0.908544
62.213,0.908905
62.2796,0.909132
62.3462,0.909038
62.4128,0.908905
62.4794,0.908975
62.546,0.90936
62.6126,0.908936
62.6792,0.908772
62.7458,0.908627
62.8125,0.908799
62.8791,0.908623
62.9457,0.908368
63.0123,0.90845
63.0789,0.908803
63.1455,0.90876
63.2121,0.908513
63.2787,0.908086
63.3453,0.908227
63.4119,0.908352
63.4785,0.908419
63.5452,0.908862
63.6118,0.908756
63.6784,0.908783
63.745,0.908799
63.8116,0.908803
63.8782,0.90858
63.9448,0.908341
64.0114,0.908262
64.078,0.908247
64.1446,0.908352
64.2112,0.908635
64.2779,0.908717
64.3445,0.908607
64.4111,0.908599
64.4777,0.908588
64.5443,0.908341
64.6109,0.908298
64.6775,0.908231
64.7441,0.908125
64.8107,0.90829
64.8773,0.907976
64.944,0.907663
65.0106,0.907388
65.0772,0.907451
65.1438,0.90733
65.2104,0.907569
65.277,0.907118
65.3436,0.907588
65.4102,0.907432
65.4768,0.907514
65.5434,0.907584
65.61,0.908172
65.6767,0.908102
65.7433,0.908294
65.8099,0.908729
65.8765,0.90847
65.9431,0.908685
66.0097,0.908685
66.0763,0.908729
66.1429,0.908972
66.2095,0.90876
66.2761,0.90867
66.3427,0.908638
66.4094,0.908595
66.476,0.908897
66.5426,0.909042
66.6092,0.909238
66.6758,0.909203
66.7424,0.909379
66.809,0.909246
66.8756,0.909614
66.9422,0.909246
67.0088,0.909285
67.0754,0.909136
67.1421,0.909367
67.2087,0.90885
67.2753,0.907255
67.3419,0.907275
67.4085,0.907134
67.4751,0.906828
67.5417,0.90675
67.6083,0.906773
67.6749,0.90671
67.7415,0.906801
67.8081,0.907028
67.8748,0.907055
67.9414,0.906918
68.008,0.906652
68.0746,0.906444
68.1412,0.906456
68.2078,0.906413
68.2744,0.906409
68.341,0.906546
68.4076,0.906507
68.4742,0.906417
68.5408,0.906209
68.6075,0.906366
68.6741,0.906609
68.7407,0.90655
68.8073,0.906483
68.8739,0.906217
68.9405,0.90559
69.0071,0.905558
69.0737,0.905417
69.1403,0.905413
69.2069,0.905343
69.2735,0.905366
69.3402,0.905394
69.4068,0.905429
69.4734,0.9053
69.54,0.90539
69.6066,0.905202
69.6732,0.904998
69.7398,0.905163
69.8064,0.905147
69.873,0.905472
69.9396,0.905699
70.0062,0.905872
70.0729,0.905797
70.1395,0.905829
70.2061,0.905809
70.2727,0.905558
70.3393,0.90588
70.4059,0.905727
70.4725,0.905962
70.5391,0.906185
70.6057,0.908505
70.6723,0.907937
70.7389,0.907686
70.8056,0.9076
70.8722,0.906949
70.9388,0.907142
71.0054,0.907334
71.072,0.907479
71.1386,0.907494
71.2052,0.907153
71.2718,0.907287
71.3384,0.90758
71.405,0.906703
71.4717,0.906902
71.5383,0.907384
71.6049,0.907051
71.6715,0.906981
71.7381,0.90684
71.8047,0.906961
71.8713,0.906855
71.9379,0.906953
72.0045,0.906765
72.0711,0.906883
72.1377,0.907114
72.2044,0.90702
72.271,0.909693
72.3376,0.909426
72.4042,0.909265
72.4708,0.909199
72.5374,0.909265
72.604,0.909038
72.6706,0.909148
72.7372,0.909038
72.8038,0.908878
72.8704,0.90912
72.9371,0.909128
73.0037,0.908858
73.0703,0.90856
73.1369,0.908838
73.2035,0.908803
73.2701,0.908282
73.3367,0.908321
73.4033,0.907984
73.4699,0.907917
73.5365,0.907917
73.6031,0.907992
73.6698,0.907992
73.7364,0.908039
73.803,0.908164
73.8696,0.908145
73.9362,0.907573
74.0028,0.90771
74.0694,0.907808
74.136,0.908074
74.2026,0.908011
74.2692,0.907882
74.3358,0.907643
74.4025,0.907592
74.4691,0.90722
74.5357,0.907541
74.6023,0.907557
74.6689,0.907502
74.7355,0.90749
74.8021,0.907424
74.8687,0.907396
74.9353,0.907239
75.0019,0.906464
75.0685,0.907357
75.1352,0.907745
75.2018,0.907816
75.2684,0.908055
75.335,0.908215
75.4016,0.908345
75.4682,0.907302
75.5348,0.907859
75.6014,0.908697
75.668,0.907659
75.7346,0.906644
75.8012,0.906248
75.8679,0.905837
75.9345,0.906174
76.0011,0.905582
76.0677,0.905425
76.1343,0.904152
76.2009,0.904935
76.2675,0.90664
76.3341,0.90405
76.4007,0.904696
76.4673,0.906475
76.5339,0.906828
76.6006,0.907145
76.6672,0.907624
76.7338,0.90809
76.8004,0.90838
76.867,0.906789
76.9336,0.906542
77.0002,0.906072
77.0668,0.90626
77.1334,0.907208
77.2,0.906542
77.2666,0.907545
77.3333,0.907189
77.3999,0.906812
77.4665,0.907153
77.5331,0.908227
77.5997,0.908364
77.6663,0.907945
77.7329,0.908505
77.7995,0.908423
77.8661,0.908497
77.9327,0.908525
77.9994,0.907812
78.066,0.907451
78.1326,0.907526
78.1992,0.907596
78.2658,0.907479
78.3324,0.907435
78.399,0.907592
78.4656,0.907341
78.5322,0.907831
78.5988,0.907741
78.6654,0.90807
78.7321,0.908305
78.7987,0.908713
78.8653,0.908505
78.9319,0.908482
78.9985,0.908627
79.0651,0.908392
79.1317,0.908376
79.1983,0.908239
